,0,1,2,3,4,5,6,7,8,9,10,11,12,13,14,15,16,17,18,19,20,21,22,23,24,25,26,27,28,29,30,31,32,33,34,35,36,37,38,39,40,41,42,43,44,45,46,47,48,49,50,51,52,53,54,55,56,57,58,59,60,61,62,63,64,65,66,67,68,69,70,71,72,73,74,75,76,77,78,79,80,81,82,83,84,85,86,87,88,89,90,91,92,93,94,95,96,97,98,99
0,-0.0025000000000000022,-0.017500000000000016,-0.012500000000000011,-0.027499999999999913,-0.05749999999999994,-0.05749999999999994,-0.06749999999999995,-0.08249999999999996,-0.07249999999999995,-0.07749999999999996,-0.09749999999999998,-0.10749999999999998,-0.1175,-0.1275,-0.12249999999999989,-0.1275,-0.1375,-0.10749999999999998,-0.12249999999999989,-0.1175,-0.12249999999999989,-0.1275,-0.12249999999999989,-0.1175,-0.1375,-0.14750000000000002,-0.15750000000000003,-0.16249999999999992,-0.1275,-0.1324999999999999,-0.11249999999999988,-0.11249999999999988,-0.1275,-0.12249999999999989,-0.1175,-0.1175,-0.1175,-0.12249999999999989,-0.11249999999999988,-0.1175,-0.09249999999999986,-0.04249999999999993,0.017500000000000016,0.11249999999999999,0.20250000000000007,0.31250000000000006,0.43750000000000006,0.5625,0.6525000000000001,0.6775,0.6375,0.4925000000000001,0.30250000000000005,0.07750000000000007,-0.16750000000000004,-0.3875,-0.5924999999999998,-0.7374999999999998,-0.8225,-0.8174999999999999,-0.7574999999999998,-0.6424999999999998,-0.5574999999999999,-0.46249999999999997,-0.3924999999999999,-0.32250000000000006,-0.2425,-0.18750000000000006,-0.1275,-0.09749999999999998,-0.07249999999999995,-0.06749999999999995,-0.11249999999999988,-0.10249999999999987,-0.11249999999999988,-0.10249999999999987,-0.08749999999999997,-0.07249999999999995,-0.052499999999999936,-0.03249999999999992,-0.027499999999999913,-0.02250000000000002,-0.017500000000000016,-0.027499999999999913,-0.03749999999999992,-0.02250000000000002,-0.027499999999999913,-0.03749999999999992,-0.027499999999999913,-0.017500000000000016,-0.0025000000000000022,0.017500000000000016,0.012500000000000011,0.0025000000000000022,0.012500000000000011,0.017500000000000016,0.012500000000000011,0.0025000000000000022,0.0025000000000000022,0.0025000000000000022
1,-0.012500000000000011,-0.017500000000000016,0.007500000000000007,0.017500000000000016,0.012500000000000011,-0.007500000000000007,-0.017500000000000016,-0.012500000000000011,0.0025000000000000022,0.012500000000000011,0.0025000000000000022,-0.007500000000000007,-0.017500000000000016,-0.007500000000000007,0.017500000000000016,0.017500000000000016,0.017500000000000016,-0.007500000000000007,-0.012500000000000011,-0.02250000000000002,0.007500000000000007,0.017500000000000016,0.012500000000000011,-0.0025000000000000022,0.012500000000000011,0.03749999999999998,0.057499999999999996,0.0875,0.13249999999999998,0.1525,0.1975,0.2475,0.3275,0.3925,0.4125,0.4325,0.4225,0.3875,0.33249999999999996,0.26749999999999996,0.23249999999999998,0.23249999999999998,0.2875,0.4025,0.5275000000000001,0.6675,0.7775000000000001,0.8674999999999999,0.9375,0.9725000000000001,0.9475,0.8825000000000001,0.7725,0.6625000000000001,0.5725,0.4875,0.4175,0.3025,0.1725,0.04249999999999998,-0.08250000000000002,-0.16250000000000003,-0.2025,-0.24250000000000005,-0.24750000000000005,-0.2825,-0.25750000000000006,-0.21250000000000002,-0.14750000000000002,-0.10749999999999998,-0.08250000000000002,-0.07750000000000001,-0.08250000000000002,-0.07250000000000001,-0.057499999999999996,-0.04749999999999999,-0.04749999999999999,-0.0675,-0.07750000000000001,-0.057499999999999996,-0.05249999999999999,-0.03250000000000003,-0.03250000000000003,-0.05249999999999999,-0.04749999999999999,-0.04249999999999998,-0.017500000000000016,-0.007500000000000007,-0.017500000000000016,-0.017500000000000016,-0.027500000000000024,-0.017500000000000016,-0.0025000000000000022,-0.0025000000000000022,-0.012500000000000011,-0.02250000000000002,-0.02250000000000002,-0.007500000000000007,-0.007500000000000007,0.012500000000000011
2,-0.0225,-0.0225,-0.032499999999999994,-0.0375,-0.0375,-0.0375,-0.06249999999999999,-0.06249999999999999,-0.0675,-0.07250000000000001,-0.05749999999999999,-0.07749999999999999,-0.05749999999999999,-0.0925,-0.0925,-0.0925,-0.06249999999999999,-0.0675,-0.07250000000000001,-0.0975,-0.10250000000000001,-0.0975,-0.0875,-0.0875,-0.0975,-0.10250000000000001,-0.11250000000000002,-0.0875,-0.0875,-0.10250000000000001,-0.10250000000000001,-0.10250000000000001,-0.10750000000000001,-0.1175,-0.11250000000000002,-0.1175,-0.1425,-0.1625,-0.1875,-0.1975,-0.20249999999999999,-0.2275,-0.27249999999999996,-0.32749999999999996,-0.4125,-0.4925,-0.5725,-0.6175,-0.6575000000000001,-0.6675,-0.6325000000000001,-0.5675,-0.4975,-0.44749999999999995,-0.44749999999999995,-0.4325,-0.40249999999999997,-0.3475,-0.31749999999999995,-0.2675,-0.2225,-0.1975,-0.17750000000000002,-0.1625,-0.1325,-0.11250000000000002,-0.08249999999999999,-0.07749999999999999,-0.05749999999999999,-0.032499999999999994,-0.0075,0.0075,0.0075,0.002500000000000009,-0.01249999999999999,-0.01249999999999999,0.0075,-0.0024999999999999953,0.0075,-0.0024999999999999953,-0.0075,-0.017499999999999995,0.012500000000000004,0.012500000000000004,0.012500000000000004,-0.0024999999999999953,0.0075,0.002500000000000009,0.0075,0.0075,0.012500000000000004,0.002500000000000009,0.002500000000000009,0.01750000000000001,0.0225,0.03250000000000001,0.03250000000000001,0.03250000000000001,0.0225,0.0225
3,-0.012500000000000011,-0.027500000000000024,-0.027500000000000024,-0.03250000000000003,-0.03250000000000003,-0.03750000000000003,-0.04250000000000004,-0.06250000000000006,-0.06750000000000006,-0.08250000000000007,-0.09250000000000008,-0.1175,-0.10749999999999998,-0.1325,-0.1225,-0.1275,-0.1275,-0.11249999999999999,-0.11249999999999999,-0.1325,-0.1225,-0.1225,-0.14750000000000002,-0.17250000000000004,-0.16750000000000004,-0.16250000000000003,-0.15750000000000003,-0.15250000000000002,-0.14750000000000002,-0.1275,-0.1225,-0.11249999999999999,-0.11249999999999999,-0.10749999999999998,-0.1175,-0.1275,-0.1225,-0.11249999999999999,-0.1325,-0.1325,-0.10749999999999998,-0.03750000000000003,0.02250000000000002,0.11249999999999999,0.21749999999999997,0.33749999999999997,0.4875,0.6125,0.6975,0.7175,0.6375,0.4725,0.2375,-0.017500000000000016,-0.30749999999999994,-0.5474999999999999,-0.7324999999999999,-0.8325,-0.8374999999999999,-0.7525,-0.6575,-0.5525,-0.44750000000000006,-0.3525000000000001,-0.28250000000000003,-0.22749999999999998,-0.15750000000000003,-0.10749999999999998,-0.07250000000000006,-0.05250000000000005,-0.05750000000000005,-0.07750000000000007,-0.08250000000000007,-0.08250000000000007,-0.08250000000000007,-0.07250000000000006,-0.05250000000000005,-0.03750000000000003,-0.027500000000000024,-0.012500000000000011,-0.012500000000000011,-0.017500000000000016,-0.02250000000000002,-0.027500000000000024,-0.017500000000000016,-0.02250000000000002,-0.027500000000000024,-0.017500000000000016,-0.012500000000000011,-0.012500000000000011,-0.0025000000000000022,0.017500000000000016,0.02250000000000002,0.007500000000000007,0.02250000000000002,0.017500000000000016,0.017500000000000016,0.012500000000000011,0.017500000000000016,0.012500000000000011
4,-0.027500000000000004,-0.03250000000000001,-0.03250000000000001,-0.03250000000000001,-0.022500000000000013,-0.012500000000000004,-0.022500000000000013,-0.03250000000000001,-0.0575,-0.0675,-0.0675,-0.0675,-0.0625,-0.0625,-0.07250000000000001,-0.08750000000000002,-0.08250000000000002,-0.0675,-0.0675,-0.0675,-0.0675,-0.0925,-0.08250000000000002,-0.0675,-0.07250000000000001,-0.0575,-0.08750000000000002,-0.0925,-0.07750000000000001,-0.0625,-0.0575,-0.0675,-0.08250000000000002,-0.0975,-0.08750000000000002,-0.08250000000000002,-0.07250000000000001,-0.08250000000000002,-0.10250000000000001,-0.12750000000000003,-0.1325,-0.14750000000000002,-0.17250000000000001,-0.2025,-0.2825,-0.3525,-0.4425,-0.5425,-0.5975,-0.6174999999999999,-0.5975,-0.5475,-0.4625,-0.4225,-0.4075,-0.39249999999999996,-0.3725,-0.3375,-0.2825,-0.2575,-0.2025,-0.1675,-0.12250000000000003,-0.12250000000000003,-0.10250000000000001,-0.0625,-0.04750000000000001,-0.03250000000000001,-0.022500000000000013,-0.01750000000000001,0.007499999999999986,0.03249999999999998,0.037499999999999985,0.03249999999999998,0.007499999999999986,0.0024999999999999814,0.0024999999999999814,0.01249999999999999,0.027500000000000004,0.027500000000000004,0.017499999999999995,0.0225,0.017499999999999995,0.027500000000000004,0.027500000000000004,0.03249999999999998,0.0225,0.017499999999999995,0.01249999999999999,0.027500000000000004,0.0225,0.037499999999999985,0.037499999999999985,0.0225,0.037499999999999985,0.03249999999999998,0.04249999999999999,0.04249999999999999,0.04249999999999999,0.027500000000000004
5,-0.0024999999999999996,0.0075,0.0125,0.0075,0.0075,-0.0024999999999999996,-0.0325,-0.057499999999999996,-0.0525,-0.0475,-0.0325,-0.0475,-0.057499999999999996,-0.07250000000000001,-0.07250000000000001,-0.042499999999999996,-0.027499999999999997,-0.027499999999999997,-0.0325,-0.0475,-0.0525,-0.057499999999999996,-0.0475,-0.042499999999999996,-0.042499999999999996,-0.0325,-0.042499999999999996,-0.027499999999999997,-0.027499999999999997,-0.042499999999999996,-0.0375,-0.0525,-0.0625,-0.0525,-0.0625,-0.057499999999999996,-0.08250000000000002,-0.10250000000000001,-0.0975,-0.0875,-0.07250000000000001,-0.0875,-0.1225,-0.1525,-0.1975,-0.2375,-0.3025,-0.3675,-0.4425,-0.4825,-0.4375,-0.3575,-0.2925,-0.2725,-0.2625,-0.2725,-0.2275,-0.1825,-0.1725,-0.2075,-0.1925,-0.1475,-0.10250000000000001,-0.0525,-0.0325,-0.0325,-0.0375,-0.0325,-0.0075,0.0125,0.0425,0.0425,0.037500000000000006,0.0125,0.0225,0.0225,0.0225,0.0425,0.0225,0.0175,0.027500000000000004,0.027500000000000004,0.027500000000000004,0.0175,-0.0024999999999999996,0.0025000000000000005,0.0075,0.0325,0.0425,0.037500000000000006,0.0175,0.0025000000000000005,0.0025000000000000005,0.0075,0.0325,0.0325,0.0225,0.0075,0.0025000000000000005,0.0025000000000000005
6,0.010000000000000009,0.0,-0.0050000000000000044,-0.015000000000000013,-0.030000000000000027,-0.050000000000000044,-0.08000000000000007,-0.08500000000000008,-0.09000000000000008,-0.10999999999999999,-0.10999999999999999,-0.09999999999999998,-0.12,-0.11499999999999999,-0.10999999999999999,-0.10499999999999998,-0.09000000000000008,-0.09999999999999998,-0.13,-0.12,-0.13,-0.13,-0.15000000000000002,-0.15000000000000002,-0.15500000000000003,-0.14500000000000002,-0.13,-0.12,-0.11499999999999999,-0.12,-0.125,-0.125,-0.125,-0.12,-0.135,-0.135,-0.14,-0.13,-0.13,-0.09999999999999998,-0.09499999999999997,-0.05500000000000005,0.0,0.05999999999999994,0.135,0.245,0.35,0.46499999999999997,0.575,0.64,0.63,0.53,0.37999999999999995,0.14500000000000002,-0.09499999999999997,-0.33000000000000007,-0.5449999999999999,-0.7250000000000001,-0.815,-0.835,-0.7849999999999999,-0.675,-0.565,-0.4650000000000001,-0.385,-0.33000000000000007,-0.265,-0.21000000000000008,-0.16500000000000004,-0.13,-0.08000000000000007,-0.08500000000000008,-0.08000000000000007,-0.08500000000000008,-0.06000000000000005,-0.04500000000000004,-0.05500000000000005,-0.040000000000000036,-0.030000000000000027,-0.05500000000000005,-0.030000000000000027,-0.04500000000000004,-0.05500000000000005,-0.07000000000000006,-0.06000000000000005,-0.04500000000000004,-0.025000000000000022,-0.0050000000000000044,0.0050000000000000044,0.0,-0.0050000000000000044,0.0050000000000000044,-0.010000000000000009,-0.0050000000000000044,-0.015000000000000013,-0.010000000000000009,-0.010000000000000009,-0.010000000000000009,0.020000000000000018,-0.010000000000000009
7,-0.0475,-0.037500000000000006,-0.0175,-0.02750000000000001,-0.0175,-0.0325,-0.0325,-0.04250000000000001,-0.05750000000000001,-0.0675,-0.0775,-0.07250000000000001,-0.06250000000000001,-0.052500000000000005,-0.05750000000000001,-0.06250000000000001,-0.0775,-0.0825,-0.07250000000000001,-0.0675,-0.06250000000000001,-0.0675,-0.0675,-0.0825,-0.0775,-0.07250000000000001,-0.06250000000000001,-0.0775,-0.0775,-0.0775,-0.0675,-0.05750000000000001,-0.06250000000000001,-0.0775,-0.10250000000000001,-0.1125,-0.11750000000000001,-0.12250000000000001,-0.12250000000000001,-0.12250000000000001,-0.1325,-0.1775,-0.21750000000000003,-0.2475,-0.2975,-0.3575,-0.4525,-0.5275000000000001,-0.5825,-0.5975,-0.5975,-0.5625,-0.5075000000000001,-0.4575,-0.4325,-0.3875,-0.34249999999999997,-0.28750000000000003,-0.2775,-0.2625,-0.1925,-0.14250000000000002,-0.11750000000000001,-0.1125,-0.10750000000000001,-0.09250000000000001,-0.0675,-0.04250000000000001,-0.04250000000000001,-0.0325,-0.022500000000000006,-0.007500000000000007,0.022500000000000006,0.022500000000000006,0.0175,0.012499999999999997,0.007499999999999993,0.007499999999999993,0.007499999999999993,0.0175,0.03249999999999999,0.0175,0.0175,0.0024999999999999883,0.022500000000000006,0.012499999999999997,0.027499999999999983,0.03249999999999999,0.027499999999999983,0.022500000000000006,0.0175,0.03749999999999999,0.03749999999999999,0.03249999999999999,0.007499999999999993,0.0175,0.027499999999999983,0.03749999999999999,0.03749999999999999,0.0475
8,-0.015000000000000013,-0.015000000000000013,0.0,-0.015000000000000013,-0.029999999999999916,-0.04999999999999993,-0.06499999999999995,-0.10999999999999999,-0.13,-0.135,-0.1499999999999999,-0.15499999999999992,-0.1499999999999999,-0.14500000000000002,-0.125,-0.11499999999999999,-0.10999999999999999,-0.13,-0.1499999999999999,-0.15999999999999992,-0.16999999999999993,-0.16999999999999993,-0.17999999999999994,-0.17499999999999993,-0.16999999999999993,-0.15999999999999992,-0.14,-0.135,-0.14,-0.12,-0.15499999999999992,-0.15499999999999992,-0.16499999999999992,-0.16499999999999992,-0.16499999999999992,-0.15499999999999992,-0.14500000000000002,-0.135,-0.11499999999999999,-0.10499999999999998,-0.07999999999999996,-0.05999999999999994,0.010000000000000009,0.08500000000000008,0.18500000000000005,0.31000000000000005,0.41000000000000003,0.545,0.645,0.7000000000000001,0.68,0.5800000000000001,0.405,0.17500000000000004,-0.05999999999999994,-0.2899999999999999,-0.51,-0.7050000000000001,-0.8300000000000001,-0.875,-0.835,-0.7649999999999999,-0.645,-0.5449999999999999,-0.45999999999999996,-0.385,-0.32999999999999996,-0.2749999999999999,-0.21499999999999997,-0.17499999999999993,-0.12,-0.09499999999999997,-0.08499999999999996,-0.06999999999999995,-0.06499999999999995,-0.08999999999999997,-0.09499999999999997,-0.08499999999999996,-0.07999999999999996,-0.08999999999999997,-0.08499999999999996,-0.07499999999999996,-0.07499999999999996,-0.05999999999999994,-0.039999999999999925,-0.015000000000000013,-0.010000000000000009,0.0,-0.010000000000000009,-0.0050000000000000044,-0.015000000000000013,-0.015000000000000013,-0.02499999999999991,-0.020000000000000018,-0.029999999999999916,-0.02499999999999991,-0.02499999999999991,-0.02499999999999991,0.0,0.015000000000000013
9,-0.027500000000000024,-0.04250000000000004,-0.03750000000000003,-0.03750000000000003,-0.027500000000000024,-0.03250000000000003,-0.05749999999999994,-0.07749999999999996,-0.10749999999999998,-0.1325,-0.14750000000000002,-0.17250000000000004,-0.17250000000000004,-0.16250000000000003,-0.15750000000000003,-0.14750000000000002,-0.14250000000000002,-0.1325,-0.14250000000000002,-0.14750000000000002,-0.16250000000000003,-0.16750000000000004,-0.18749999999999994,-0.19249999999999995,-0.19249999999999995,-0.18249999999999994,-0.16250000000000003,-0.16250000000000003,-0.16750000000000004,-0.17250000000000004,-0.17250000000000004,-0.16250000000000003,-0.17250000000000004,-0.17749999999999994,-0.19249999999999995,-0.20249999999999996,-0.17749999999999994,-0.15750000000000003,-0.14250000000000002,-0.1325,-0.1225,-0.10749999999999998,-0.05749999999999994,-0.0025000000000000022,0.07250000000000006,0.17750000000000005,0.2975,0.45249999999999996,0.5625,0.6725000000000001,0.6725000000000001,0.5625,0.3625,0.08749999999999997,-0.19749999999999995,-0.4825000000000001,-0.7325000000000002,-0.9125000000000001,-1.0025,-0.9675,-0.8625,-0.7475,-0.6125,-0.5175000000000001,-0.45250000000000007,-0.3874999999999999,-0.32750000000000007,-0.2675,-0.21249999999999997,-0.16750000000000004,-0.11249999999999999,-0.10749999999999998,-0.09249999999999997,-0.10249999999999998,-0.09249999999999997,-0.09249999999999997,-0.06749999999999995,-0.07249999999999995,-0.07249999999999995,-0.052499999999999936,-0.04750000000000004,-0.05749999999999994,-0.062499999999999944,-0.052499999999999936,-0.04250000000000004,-0.03250000000000003,-0.02250000000000002,-0.017500000000000016,0.0025000000000000022,0.012500000000000011,0.012500000000000011,0.012500000000000011,-0.017500000000000016,0.0025000000000000022,-0.0025000000000000022,0.0025000000000000022,-0.0025000000000000022,-0.007500000000000007,0.027500000000000024,0.027500000000000024
10,-0.022500000000000006,0.012499999999999997,-0.0024999999999999883,-0.0175,-0.022500000000000006,-0.012499999999999997,-0.0024999999999999883,0.0024999999999999883,0.007499999999999993,-0.0024999999999999883,-0.012499999999999997,0.0024999999999999883,0.012499999999999997,0.042499999999999996,0.02750000000000001,0.0024999999999999883,-0.007499999999999993,-0.0175,0.0024999999999999883,0.0175,0.03249999999999999,0.022500000000000006,0.022500000000000006,0.022500000000000006,0.0475,0.06749999999999999,0.1025,0.1125,0.14750000000000002,0.1875,0.2625,0.3275,0.3825,0.4325,0.4575,0.4675,0.4925,0.4525,0.36750000000000005,0.2925,0.23249999999999998,0.23249999999999998,0.28750000000000003,0.37250000000000005,0.4875,0.5975,0.7075,0.8075,0.8975,0.9625,0.9325,0.8325,0.7225,0.6225,0.5525,0.47250000000000003,0.35750000000000004,0.2475,0.1325,0.02750000000000001,-0.06250000000000001,-0.1125,-0.1725,-0.21249999999999997,-0.2475,-0.21749999999999997,-0.1925,-0.14249999999999996,-0.1025,-0.09249999999999999,-0.07250000000000002,-0.06250000000000001,-0.02750000000000001,-0.0024999999999999883,-0.012499999999999997,-0.0175,-0.03249999999999999,-0.03249999999999999,-0.022500000000000006,-0.012499999999999997,-0.012499999999999997,-0.0175,-0.02750000000000001,-0.03249999999999999,-0.0175,0.007499999999999993,0.0024999999999999883,-0.007499999999999993,-0.022500000000000006,-0.042499999999999996,-0.0024999999999999883,0.012499999999999997,-0.0024999999999999883,0.007499999999999993,-0.0024999999999999883,-0.007499999999999993,0.022500000000000006,0.03749999999999999,0.022500000000000006,0.022500000000000006
11,0.07750000000000001,0.057499999999999996,0.04249999999999998,0.022499999999999964,0.022499999999999964,-0.0025000000000000022,-0.012500000000000011,-0.03750000000000003,-0.03750000000000003,-0.027500000000000024,-0.027500000000000024,-0.017500000000000016,-0.02250000000000002,-0.03250000000000003,-0.03750000000000003,-0.04250000000000004,-0.03250000000000003,-0.027500000000000024,-0.02250000000000002,-0.04250000000000004,-0.04749999999999999,-0.03750000000000003,-0.03750000000000003,-0.03250000000000003,-0.03250000000000003,-0.04250000000000004,-0.03750000000000003,-0.03250000000000003,-0.027500000000000024,-0.04250000000000004,-0.057499999999999996,-0.07250000000000001,-0.09250000000000003,-0.1225,-0.1375,-0.14250000000000002,-0.15750000000000003,-0.17250000000000004,-0.19250000000000006,-0.22249999999999998,-0.21749999999999997,-0.16750000000000004,-0.05249999999999999,0.07750000000000001,0.2425,0.4425,0.6825000000000001,0.9375,1.1175,1.1675000000000002,1.0825,0.8325,0.4825,0.1525,-0.0625,-0.1225,-0.11249999999999999,-0.07250000000000001,-0.04749999999999999,-0.04250000000000004,-0.07250000000000001,-0.0625,-0.0675,-0.057499999999999996,-0.05249999999999999,-0.0625,-0.07250000000000001,-0.08250000000000002,-0.08250000000000002,-0.08250000000000002,-0.07750000000000001,-0.0625,-0.0675,-0.07750000000000001,-0.07250000000000001,-0.07250000000000001,-0.07750000000000001,-0.07750000000000001,-0.07750000000000001,-0.08750000000000002,-0.09750000000000003,-0.07750000000000001,-0.0625,-0.0625,-0.0625,-0.0675,-0.07750000000000001,-0.07250000000000001,-0.0625,-0.057499999999999996,-0.07750000000000001,-0.07250000000000001,-0.07750000000000001,-0.08250000000000002,-0.07250000000000001,-0.07250000000000001,-0.07750000000000001,-0.08750000000000002,-0.09250000000000003,-0.07750000000000001
12,-0.007500000000000007,-0.022499999999999964,-0.02749999999999997,-0.02749999999999997,-0.012499999999999956,0.007500000000000007,-0.0025000000000000022,-0.012499999999999956,-0.022499999999999964,-0.022499999999999964,-0.012499999999999956,0.0025000000000000022,0.0025000000000000022,-0.012499999999999956,-0.022499999999999964,-0.03749999999999998,-0.012499999999999956,0.012500000000000011,0.012500000000000011,0.0025000000000000022,-0.007500000000000007,-0.0025000000000000022,0.017500000000000016,0.027500000000000024,0.03750000000000003,0.04250000000000001,0.06750000000000003,0.08750000000000002,0.11750000000000002,0.17750000000000002,0.2325,0.28250000000000003,0.3325,0.3975,0.4575,0.4925,0.4975,0.4525,0.3875,0.3275,0.2725,0.2475,0.2575,0.29250000000000004,0.3625,0.4975,0.6325000000000001,0.7625,0.8574999999999999,0.9025000000000001,0.8875,0.8425,0.7525,0.6775,0.5775000000000001,0.4775,0.3875,0.29250000000000004,0.1925,0.10750000000000001,0.0025000000000000022,-0.09749999999999998,-0.16749999999999998,-0.22249999999999998,-0.2375,-0.20749999999999996,-0.20749999999999996,-0.1775,-0.16249999999999998,-0.13749999999999996,-0.08249999999999996,-0.0625,-0.03749999999999998,-0.04749999999999999,-0.0675,-0.04749999999999999,-0.057499999999999996,-0.03249999999999997,-0.01749999999999996,-0.03249999999999997,-0.03749999999999998,-0.03249999999999997,-0.01749999999999996,-0.0025000000000000022,-0.007500000000000007,-0.03249999999999997,-0.04749999999999999,-0.03249999999999997,-0.01749999999999996,0.012500000000000011,0.007500000000000007,-0.0025000000000000022,-0.01749999999999996,-0.012499999999999956,-0.007500000000000007,0.012500000000000011,0.02250000000000002,0.0025000000000000022,-0.0025000000000000022,0.007500000000000007
13,-0.0325,-0.037500000000000006,-0.02750000000000001,-0.007500000000000007,-0.012500000000000011,-0.022500000000000006,-0.04250000000000001,-0.0625,-0.07750000000000001,-0.0675,-0.052500000000000005,-0.0475,-0.052500000000000005,-0.05750000000000001,-0.07250000000000001,-0.0675,-0.052500000000000005,-0.052500000000000005,-0.0625,-0.07250000000000001,-0.0825,-0.0675,-0.0675,-0.0475,-0.0675,-0.07250000000000001,-0.0825,-0.0675,-0.04250000000000001,-0.0475,-0.0475,-0.07750000000000001,-0.0825,-0.07750000000000001,-0.07250000000000001,-0.07750000000000001,-0.0825,-0.10750000000000001,-0.11750000000000001,-0.1125,-0.1125,-0.10750000000000001,-0.1225,-0.14750000000000002,-0.20750000000000002,-0.2425,-0.3175,-0.3925,-0.4875,-0.5475000000000001,-0.5475000000000001,-0.4925,-0.40750000000000003,-0.3525,-0.33749999999999997,-0.33749999999999997,-0.3075,-0.2625,-0.2375,-0.21250000000000002,-0.1775,-0.14250000000000002,-0.11750000000000001,-0.08750000000000001,-0.07250000000000001,-0.0625,-0.052500000000000005,-0.0475,-0.052500000000000005,-0.0175,0.007500000000000007,0.0325,0.027499999999999997,0.022499999999999992,0.012499999999999983,0.0025000000000000022,0.022499999999999992,0.007500000000000007,0.007500000000000007,0.012499999999999983,-0.007500000000000007,0.0025000000000000022,0.027499999999999997,0.027499999999999997,0.022499999999999992,0.017499999999999988,0.0025000000000000022,0.007500000000000007,0.022499999999999992,0.0325,0.04249999999999998,0.027499999999999997,0.0325,0.022499999999999992,0.017499999999999988,0.017499999999999988,0.027499999999999997,0.037500000000000006,0.027499999999999997,0.0325
14,-0.0175,-0.0175,-0.0024999999999999883,0.0024999999999999883,-0.012499999999999997,-0.0175,-0.0475,-0.057499999999999996,-0.052500000000000005,-0.0475,-0.057499999999999996,-0.0625,-0.0625,-0.0625,-0.0475,-0.0625,-0.0625,-0.0725,-0.0725,-0.0725,-0.0625,-0.057499999999999996,-0.057499999999999996,-0.0725,-0.0975,-0.0775,-0.0675,-0.0625,-0.0675,-0.057499999999999996,-0.0675,-0.0725,-0.0675,-0.0725,-0.0725,-0.0975,-0.1075,-0.12250000000000001,-0.11750000000000001,-0.1025,-0.0975,-0.0925,-0.1025,-0.1325,-0.16249999999999998,-0.21250000000000002,-0.28250000000000003,-0.36750000000000005,-0.4325,-0.4425,-0.40750000000000003,-0.3325,-0.2725,-0.2475,-0.2725,-0.2625,-0.21250000000000002,-0.1875,-0.1825,-0.1925,-0.2025,-0.15750000000000003,-0.1075,-0.0675,-0.0725,-0.0725,-0.057499999999999996,-0.052500000000000005,-0.042499999999999996,-0.0175,-0.007499999999999993,-0.0175,-0.007499999999999993,0.0175,0.02750000000000001,0.007499999999999993,-0.0024999999999999883,-0.022500000000000006,-0.007499999999999993,-0.0024999999999999883,0.022500000000000006,0.022500000000000006,0.007499999999999993,-0.007499999999999993,-0.0175,-0.0024999999999999883,0.0175,0.0024999999999999883,0.012499999999999997,0.012499999999999997,-0.007499999999999993,-0.0024999999999999883,0.007499999999999993,0.0024999999999999883,0.0024999999999999883,0.007499999999999993,-0.012499999999999997,0.0024999999999999883,0.012499999999999997,0.0175
15,-0.010000000000000009,0.0,-0.024999999999999967,-0.02999999999999997,-0.015000000000000013,0.0,0.010000000000000009,0.025000000000000022,0.0050000000000000044,-0.010000000000000009,-0.010000000000000009,-0.010000000000000009,-0.0050000000000000044,-0.015000000000000013,-0.015000000000000013,-0.034999999999999976,-0.06,-0.065,-0.04999999999999999,-0.034999999999999976,-0.02999999999999997,-0.034999999999999976,-0.044999999999999984,-0.03999999999999998,-0.03999999999999998,-0.015000000000000013,-0.02999999999999997,-0.020000000000000018,0.0050000000000000044,0.025000000000000022,0.065,0.09500000000000003,0.12,0.175,0.245,0.33,0.4,0.465,0.51,0.49,0.44,0.395,0.37,0.355,0.405,0.505,0.6849999999999999,0.87,1.0099999999999998,1.0499999999999998,0.975,0.83,0.725,0.62,0.545,0.435,0.30000000000000004,0.15000000000000002,0.03500000000000003,-0.04999999999999999,-0.12499999999999994,-0.16499999999999998,-0.21500000000000002,-0.23500000000000004,-0.22500000000000003,-0.2,-0.16499999999999998,-0.13999999999999996,-0.11500000000000005,-0.11000000000000004,-0.09500000000000003,-0.09500000000000003,-0.07,-0.06,-0.07500000000000001,-0.08000000000000002,-0.08000000000000002,-0.08000000000000002,-0.05499999999999999,-0.05499999999999999,-0.06,-0.065,-0.07,-0.03999999999999998,-0.03999999999999998,-0.024999999999999967,-0.03999999999999998,-0.044999999999999984,-0.044999999999999984,-0.020000000000000018,-0.020000000000000018,-0.020000000000000018,-0.020000000000000018,-0.02999999999999997,-0.024999999999999967,-0.010000000000000009,0.015000000000000013,0.020000000000000018,0.010000000000000009,0.010000000000000009
16,0.03749999999999998,0.03250000000000003,0.017500000000000016,0.007500000000000007,-0.007500000000000007,-0.0025000000000000022,-0.007500000000000007,0.007500000000000007,-0.007500000000000007,-0.012500000000000011,-0.02250000000000002,-0.017500000000000016,-0.012500000000000011,-0.007500000000000007,-0.0025000000000000022,-0.02250000000000002,-0.02749999999999997,-0.02250000000000002,-0.012500000000000011,-0.017500000000000016,-0.012500000000000011,-0.02250000000000002,-0.02250000000000002,-0.017500000000000016,-0.017500000000000016,-0.012500000000000011,-0.017500000000000016,-0.02749999999999997,-0.057499999999999996,-0.07750000000000001,-0.11249999999999999,-0.1225,-0.1325,-0.1325,-0.15749999999999997,-0.16249999999999998,-0.1925,-0.23250000000000004,-0.25749999999999995,-0.22750000000000004,-0.1725,-0.057499999999999996,0.0675,0.1975,0.3775,0.6025,0.8425,1.0575,1.1775,1.2075,1.0475,0.7424999999999999,0.3325,0.03250000000000003,-0.1175,-0.1325,-0.1175,-0.0675,-0.0625,-0.05249999999999999,-0.05249999999999999,-0.05249999999999999,-0.04249999999999998,-0.04249999999999998,-0.05249999999999999,-0.0675,-0.04749999999999999,-0.04249999999999998,-0.04749999999999999,-0.04749999999999999,-0.057499999999999996,-0.0675,-0.04249999999999998,-0.04749999999999999,-0.03749999999999998,-0.057499999999999996,-0.0625,-0.057499999999999996,-0.03749999999999998,-0.03749999999999998,-0.04249999999999998,-0.04749999999999999,-0.0625,-0.05249999999999999,-0.03749999999999998,-0.03249999999999997,-0.03749999999999998,-0.04749999999999999,-0.0625,-0.04749999999999999,-0.03749999999999998,-0.03749999999999998,-0.04749999999999999,-0.0675,-0.07250000000000001,-0.057499999999999996,-0.03749999999999998,-0.04749999999999999,-0.04249999999999998,-0.03749999999999998
17,0.0,-0.025,-0.04,-0.06,-0.035,-0.03,-0.03,-0.025,-0.05,-0.06,-0.06,-0.06,-0.045,-0.055,-0.06,-0.07,-0.08,-0.07,-0.05,-0.05,-0.07,-0.075,-0.07,-0.06,-0.05,-0.045,-0.06,-0.08,-0.075,-0.07,-0.055,-0.045,-0.045,-0.075,-0.075,-0.07,-0.07,-0.1,-0.10500000000000001,-0.1,-0.09,-0.075,-0.09,-0.115,-0.16,-0.21500000000000002,-0.28,-0.335,-0.405,-0.47000000000000003,-0.47000000000000003,-0.44,-0.38,-0.33,-0.32,-0.31,-0.32,-0.285,-0.255,-0.235,-0.185,-0.16999999999999998,-0.14500000000000002,-0.13,-0.12,-0.09,-0.07,-0.06,-0.055,-0.05,-0.03,-0.009999999999999995,0.015,0.015,0.015,0.0050000000000000044,0.0050000000000000044,0.0050000000000000044,0.0050000000000000044,0.0050000000000000044,0.0,0.0,0.009999999999999995,0.015,0.015,0.009999999999999995,0.009999999999999995,0.015,0.009999999999999995,0.03,0.024999999999999994,0.03,0.015,0.0,0.0050000000000000044,0.020000000000000004,0.03,0.024999999999999994,0.015,0.0
18,0.0675,0.05249999999999999,0.04249999999999998,0.022499999999999964,0.022499999999999964,0.012500000000000011,0.0025000000000000022,-0.0025000000000000022,-0.007500000000000007,-0.0025000000000000022,0.0025000000000000022,0.0025000000000000022,-0.0025000000000000022,-0.012500000000000011,-0.007500000000000007,0.0025000000000000022,0.0025000000000000022,-0.0025000000000000022,0.0025000000000000022,-0.007500000000000007,-0.012500000000000011,-0.012500000000000011,-0.017500000000000016,-0.017500000000000016,-0.017500000000000016,-0.02250000000000002,-0.02250000000000002,-0.012500000000000011,-0.017500000000000016,-0.03750000000000003,-0.057499999999999996,-0.09750000000000003,-0.1225,-0.1275,-0.14250000000000002,-0.19250000000000006,-0.2525,-0.2525,-0.20749999999999996,-0.11249999999999999,-0.02250000000000002,0.04749999999999999,0.1225,0.23249999999999998,0.40249999999999997,0.6074999999999999,0.8425,1.0325,1.1425,1.1625,1.0225,0.7324999999999999,0.3825,0.08749999999999997,-0.09250000000000003,-0.16750000000000004,-0.15250000000000002,-0.1175,-0.0675,-0.0675,-0.0625,-0.07750000000000001,-0.0675,-0.057499999999999996,-0.04250000000000004,-0.0675,-0.08750000000000002,-0.08250000000000002,-0.0675,-0.0625,-0.057499999999999996,-0.05249999999999999,-0.0675,-0.0675,-0.07250000000000001,-0.057499999999999996,-0.0675,-0.0675,-0.07750000000000001,-0.08750000000000002,-0.07250000000000001,-0.0625,-0.057499999999999996,-0.0625,-0.07750000000000001,-0.09250000000000003,-0.08750000000000002,-0.08250000000000002,-0.07750000000000001,-0.07250000000000001,-0.057499999999999996,-0.07250000000000001,-0.0675,-0.0625,-0.0625,-0.07250000000000001,-0.07750000000000001,-0.07750000000000001,-0.08250000000000002,-0.0675
19,0.0,0.004999999999999977,-0.0050000000000000044,-0.015000000000000013,-0.02500000000000001,-0.02500000000000001,-0.02500000000000001,-0.03500000000000002,-0.03500000000000002,-0.05500000000000001,-0.07500000000000001,-0.08500000000000002,-0.07,-0.05500000000000001,-0.06000000000000001,-0.08000000000000002,-0.09000000000000001,-0.08500000000000002,-0.08500000000000002,-0.07500000000000001,-0.06500000000000002,-0.07500000000000001,-0.08500000000000002,-0.09500000000000001,-0.09000000000000001,-0.06500000000000002,-0.07,-0.08500000000000002,-0.11000000000000001,-0.11000000000000001,-0.10000000000000002,-0.08500000000000002,-0.09000000000000001,-0.10000000000000002,-0.11000000000000001,-0.135,-0.15000000000000002,-0.15000000000000002,-0.14500000000000002,-0.14500000000000002,-0.14500000000000002,-0.14,-0.14500000000000002,-0.16000000000000003,-0.17500000000000004,-0.23000000000000004,-0.29500000000000004,-0.375,-0.425,-0.435,-0.385,-0.31000000000000005,-0.265,-0.26,-0.25,-0.21500000000000002,-0.19,-0.185,-0.19,-0.16000000000000003,-0.115,-0.10000000000000002,-0.07500000000000001,-0.08000000000000002,-0.08500000000000002,-0.08500000000000002,-0.05000000000000002,-0.05000000000000002,-0.030000000000000013,-0.015000000000000013,0.0,-0.020000000000000018,-0.0050000000000000044,-0.010000000000000009,-0.0050000000000000044,-0.0050000000000000044,-0.0050000000000000044,0.0,-0.0050000000000000044,0.0,0.009999999999999981,0.004999999999999977,-0.010000000000000009,-0.030000000000000013,-0.010000000000000009,0.014999999999999986,0.014999999999999986,0.0,-0.0050000000000000044,-0.02500000000000001,-0.030000000000000013,-0.03500000000000002,-0.010000000000000009,-0.010000000000000009,-0.010000000000000009,-0.020000000000000018,-0.02500000000000001,-0.015000000000000013,0.0,0.0
20,0.0625,0.04249999999999998,0.04249999999999998,0.017500000000000016,-0.007500000000000007,-0.017500000000000016,-0.007500000000000007,-0.012500000000000011,-0.012500000000000011,-0.017500000000000016,-0.027500000000000024,-0.017500000000000016,-0.017500000000000016,-0.017500000000000016,-0.007500000000000007,-0.007500000000000007,-0.02250000000000002,-0.02250000000000002,-0.02250000000000002,-0.02250000000000002,-0.017500000000000016,-0.027500000000000024,-0.027500000000000024,-0.02250000000000002,-0.007500000000000007,-0.0025000000000000022,-0.0025000000000000022,-0.0025000000000000022,-0.007500000000000007,-0.02250000000000002,-0.027500000000000024,-0.02250000000000002,-0.04249999999999998,-0.07750000000000001,-0.1225,-0.1375,-0.14750000000000002,-0.15750000000000003,-0.1825,-0.20750000000000002,-0.1825,-0.1225,0.03249999999999997,0.1525,0.3175,0.5475,0.8075,1.0325000000000002,1.1875,1.2175000000000002,1.0375,0.6975,0.3025,0.0025000000000000022,-0.1225,-0.14750000000000002,-0.1275,-0.08750000000000002,-0.057499999999999996,-0.05249999999999999,-0.04749999999999999,-0.04249999999999998,-0.04249999999999998,-0.04749999999999999,-0.057499999999999996,-0.07250000000000001,-0.0625,-0.057499999999999996,-0.057499999999999996,-0.0625,-0.07750000000000001,-0.07250000000000001,-0.0675,-0.0625,-0.057499999999999996,-0.0625,-0.0625,-0.0675,-0.0625,-0.057499999999999996,-0.04249999999999998,-0.05249999999999999,-0.05249999999999999,-0.0675,-0.057499999999999996,-0.04749999999999999,-0.04749999999999999,-0.0675,-0.0675,-0.0675,-0.05249999999999999,-0.04249999999999998,-0.04749999999999999,-0.04749999999999999,-0.057499999999999996,-0.0675,-0.057499999999999996,-0.0625,-0.0625,-0.0625
21,-0.015000000000000013,-0.030000000000000027,-0.04500000000000004,-0.03500000000000003,-0.050000000000000044,-0.06499999999999995,-0.10499999999999998,-0.1399999999999999,-0.1399999999999999,-0.15500000000000003,-0.16999999999999993,-0.1499999999999999,-0.1299999999999999,-0.135,-0.1299999999999999,-0.1499999999999999,-0.15500000000000003,-0.16500000000000004,-0.17500000000000004,-0.18999999999999995,-0.19500000000000006,-0.20500000000000007,-0.19999999999999996,-0.17500000000000004,-0.17500000000000004,-0.15999999999999992,-0.16500000000000004,-0.15500000000000003,-0.16500000000000004,-0.16500000000000004,-0.18500000000000005,-0.17999999999999994,-0.16999999999999993,-0.16999999999999993,-0.15999999999999992,-0.14500000000000002,-0.1299999999999999,-0.1299999999999999,-0.11999999999999988,-0.125,-0.125,-0.07999999999999996,-0.05499999999999994,0.015000000000000013,0.12,0.235,0.37,0.515,0.64,0.7000000000000001,0.68,0.525,0.29500000000000004,0.015000000000000013,-0.2749999999999999,-0.54,-0.7849999999999999,-0.95,-1.04,-1.02,-0.95,-0.815,-0.675,-0.5900000000000001,-0.5149999999999999,-0.44999999999999996,-0.3999999999999999,-0.3400000000000001,-0.2649999999999999,-0.20500000000000007,-0.14500000000000002,-0.11499999999999999,-0.10499999999999998,-0.09999999999999998,-0.10999999999999999,-0.10999999999999999,-0.11499999999999999,-0.11499999999999999,-0.10999999999999999,-0.11999999999999988,-0.09499999999999997,-0.07999999999999996,-0.07499999999999996,-0.05499999999999994,-0.04500000000000004,-0.030000000000000027,-0.015000000000000013,-0.03500000000000003,-0.03500000000000003,-0.040000000000000036,-0.040000000000000036,-0.030000000000000027,-0.05499999999999994,-0.04500000000000004,-0.040000000000000036,-0.015000000000000013,-0.0050000000000000044,0.020000000000000018,0.010000000000000009,0.015000000000000013
22,0.010000000000000009,0.03,0.01999999999999999,0.014999999999999986,0.01999999999999999,0.014999999999999986,0.014999999999999986,0.035,0.035,0.01999999999999999,0.03,0.010000000000000009,0.01999999999999999,0.024999999999999994,0.04000000000000001,0.035,0.035,0.024999999999999994,0.03,0.044999999999999984,0.044999999999999984,0.044999999999999984,0.044999999999999984,0.04999999999999999,0.07499999999999998,0.09999999999999999,0.135,0.15,0.15,0.205,0.275,0.37,0.44499999999999995,0.495,0.54,0.57,0.5599999999999999,0.55,0.485,0.42499999999999993,0.39,0.41500000000000004,0.49,0.585,0.695,0.82,0.9149999999999999,0.995,1.095,1.1549999999999998,1.1549999999999998,1.065,0.945,0.855,0.7849999999999999,0.735,0.6399999999999999,0.5349999999999999,0.41999999999999993,0.30499999999999994,0.205,0.105,0.0050000000000000044,-0.07499999999999998,-0.145,-0.18000000000000002,-0.17500000000000002,-0.145,-0.11500000000000002,-0.10500000000000001,-0.07499999999999998,-0.05500000000000002,-0.035,-0.01999999999999999,-0.015000000000000013,-0.03,-0.04500000000000001,-0.04000000000000001,-0.04000000000000001,-0.024999999999999994,-0.024999999999999994,-0.03,-0.04500000000000001,-0.035,-0.024999999999999994,-0.024999999999999994,-0.015000000000000013,-0.03,-0.04000000000000001,-0.04000000000000001,-0.035,-0.01999999999999999,-0.01999999999999999,-0.03,-0.03,-0.04000000000000001,-0.01999999999999999,-0.0050000000000000044,0.0050000000000000044,-0.010000000000000009
23,-0.0050000000000000044,-0.020000000000000018,-0.030000000000000027,-0.03499999999999992,-0.04499999999999993,-0.07499999999999996,-0.07499999999999996,-0.09000000000000008,-0.10000000000000009,-0.125,-0.1200000000000001,-0.1200000000000001,-0.125,-0.14000000000000012,-0.14000000000000012,-0.14000000000000012,-0.15500000000000003,-0.16500000000000004,-0.17999999999999994,-0.18999999999999995,-0.18500000000000005,-0.17999999999999994,-0.16500000000000004,-0.17500000000000004,-0.17500000000000004,-0.17999999999999994,-0.17999999999999994,-0.18500000000000005,-0.19500000000000006,-0.19999999999999996,-0.19500000000000006,-0.17999999999999994,-0.17500000000000004,-0.16500000000000004,-0.16500000000000004,-0.16999999999999993,-0.14000000000000012,-0.15000000000000013,-0.15999999999999992,-0.16999999999999993,-0.14000000000000012,-0.125,-0.07499999999999996,0.0,0.07499999999999996,0.20499999999999996,0.33499999999999996,0.45999999999999996,0.585,0.625,0.595,0.46499999999999997,0.25,-0.030000000000000027,-0.31000000000000005,-0.5700000000000001,-0.7750000000000001,-0.9199999999999999,-0.9950000000000001,-0.98,-0.9299999999999999,-0.8049999999999999,-0.6950000000000001,-0.5900000000000001,-0.53,-0.45999999999999996,-0.40000000000000013,-0.32000000000000006,-0.2450000000000001,-0.16999999999999993,-0.13000000000000012,-0.1100000000000001,-0.10499999999999998,-0.1200000000000001,-0.1200000000000001,-0.13000000000000012,-0.125,-0.125,-0.09499999999999997,-0.08499999999999996,-0.07000000000000006,-0.08000000000000007,-0.06499999999999995,-0.07499999999999996,-0.05499999999999994,-0.05499999999999994,-0.05499999999999994,-0.030000000000000027,-0.04499999999999993,-0.040000000000000036,-0.03499999999999992,-0.03499999999999992,-0.025000000000000022,-0.020000000000000018,-0.010000000000000009,-0.0050000000000000044,0.0050000000000000044,0.0050000000000000044,0.0,0.0050000000000000044
24,0.07999999999999999,0.07499999999999998,0.04500000000000001,0.035,0.014999999999999986,-0.004999999999999977,-0.024999999999999994,-0.03,-0.024999999999999994,-0.01999999999999999,-0.024999999999999994,-0.035,-0.05000000000000002,-0.060000000000000026,-0.060000000000000026,-0.04500000000000001,-0.05500000000000002,-0.04500000000000001,-0.04500000000000001,-0.04500000000000001,-0.04500000000000001,-0.05000000000000002,-0.05000000000000002,-0.05000000000000002,-0.060000000000000026,-0.05000000000000002,-0.05500000000000002,-0.04500000000000001,-0.04500000000000001,-0.05500000000000002,-0.06500000000000003,-0.07499999999999998,-0.07999999999999999,-0.1,-0.12999999999999998,-0.15,-0.17,-0.21000000000000005,-0.24499999999999997,-0.265,-0.22000000000000006,-0.12000000000000002,-0.03,0.07999999999999999,0.265,0.48,0.7350000000000001,0.9550000000000001,1.115,1.16,1.08,0.8400000000000001,0.495,0.18,-0.060000000000000026,-0.17500000000000002,-0.20000000000000004,-0.16,-0.11500000000000002,-0.1,-0.09,-0.095,-0.09,-0.07499999999999998,-0.07999999999999999,-0.08499999999999999,-0.10500000000000001,-0.10500000000000001,-0.1,-0.08499999999999999,-0.07999999999999999,-0.08499999999999999,-0.09,-0.09,-0.09,-0.07999999999999999,-0.07999999999999999,-0.07499999999999998,-0.07999999999999999,-0.095,-0.1,-0.08499999999999999,-0.09,-0.07499999999999998,-0.07999999999999999,-0.1,-0.09,-0.07499999999999998,-0.06999999999999998,-0.07499999999999998,-0.07499999999999998,-0.09,-0.07499999999999998,-0.07499999999999998,-0.06500000000000003,-0.06999999999999998,-0.1,-0.1,-0.09,-0.07999999999999999
25,-0.0475,-0.05750000000000001,-0.037500000000000006,-0.0325,-0.0475,-0.0675,-0.0725,-0.0675,-0.0725,-0.0725,-0.08750000000000001,-0.0825,-0.08750000000000001,-0.0825,-0.0775,-0.0775,-0.0925,-0.10250000000000001,-0.1125,-0.1125,-0.0975,-0.0925,-0.08750000000000001,-0.0975,-0.1125,-0.0925,-0.0825,-0.08750000000000001,-0.0925,-0.0975,-0.1075,-0.10250000000000001,-0.0975,-0.08750000000000001,-0.0975,-0.12250000000000001,-0.1275,-0.1325,-0.1375,-0.1375,-0.14750000000000002,-0.16749999999999998,-0.21250000000000002,-0.2575,-0.3025,-0.3725,-0.4475,-0.5225000000000001,-0.5925,-0.6175,-0.6075,-0.5475,-0.4725,-0.4425,-0.4425,-0.4125,-0.3725,-0.32749999999999996,-0.3025,-0.2775,-0.2625,-0.2025,-0.16249999999999998,-0.1325,-0.12250000000000001,-0.10250000000000001,-0.0975,-0.08750000000000001,-0.052500000000000005,-0.027499999999999997,-0.012499999999999997,-0.007500000000000007,-0.007500000000000007,0.012499999999999997,0.012499999999999997,0.012499999999999997,0.007499999999999993,-0.0025000000000000022,-0.012499999999999997,-0.0025000000000000022,0.0175,0.012499999999999997,0.0175,0.0175,-0.0025000000000000022,0.012499999999999997,0.0175,0.022500000000000006,0.022500000000000006,0.02750000000000001,0.022500000000000006,0.03249999999999999,0.03249999999999999,0.03749999999999999,0.02750000000000001,0.022500000000000006,0.022500000000000006,0.03249999999999999,0.0475,0.0475
26,0.035,0.035,0.04500000000000001,0.024999999999999994,0.014999999999999986,0.010000000000000037,-0.004999999999999977,-0.009999999999999981,-0.004999999999999977,0.005000000000000032,2.7755575615628914e-17,-0.01999999999999999,-0.03,-0.01999999999999999,-0.014999999999999986,-0.009999999999999981,-0.009999999999999981,-0.014999999999999986,-0.024999999999999994,-0.004999999999999977,0.005000000000000032,2.7755575615628914e-17,2.7755575615628914e-17,0.005000000000000032,-0.009999999999999981,0.005000000000000032,0.005000000000000032,0.014999999999999986,2.7755575615628914e-17,0.005000000000000032,-0.01999999999999999,-0.009999999999999981,-0.01999999999999999,-0.04500000000000001,-0.07499999999999998,-0.11999999999999997,-0.165,-0.165,-0.19500000000000003,-0.21499999999999994,-0.18500000000000003,-0.09,0.05000000000000002,0.215,0.38,0.615,0.865,1.0899999999999999,1.2,1.23,1.0899999999999999,0.755,0.32999999999999996,0.01999999999999999,-0.12499999999999997,-0.11499999999999996,-0.05999999999999997,-0.01999999999999999,-0.009999999999999981,-0.03,-0.04500000000000001,-0.024999999999999994,-0.035,-0.01999999999999999,-0.03,-0.04000000000000001,-0.05000000000000002,-0.035,-0.024999999999999994,-0.03,-0.03,-0.04000000000000001,-0.04500000000000001,-0.05000000000000002,-0.04500000000000001,-0.035,-0.035,-0.04000000000000001,-0.04500000000000001,-0.035,-0.03,-0.035,-0.03,-0.054999999999999966,-0.06499999999999997,-0.05000000000000002,-0.054999999999999966,-0.035,-0.035,-0.035,-0.04500000000000001,-0.04500000000000001,-0.035,-0.01999999999999999,-0.024999999999999994,-0.04000000000000001,-0.04500000000000001,-0.035,-0.04500000000000001,-0.035
27,0.0,0.0050000000000000044,0.015000000000000013,0.015000000000000013,0.025000000000000022,0.010000000000000009,-0.010000000000000009,-0.020000000000000018,-0.05999999999999994,-0.07999999999999996,-0.09499999999999997,-0.10499999999999998,-0.11499999999999999,-0.125,-0.12,-0.08999999999999997,-0.08499999999999996,-0.09499999999999997,-0.10499999999999998,-0.14,-0.14,-0.14,-0.15000000000000002,-0.15500000000000003,-0.15000000000000002,-0.14500000000000002,-0.135,-0.12,-0.09999999999999998,-0.10499999999999998,-0.10999999999999999,-0.125,-0.125,-0.14500000000000002,-0.135,-0.135,-0.14,-0.14,-0.12,-0.09999999999999998,-0.07499999999999996,-0.05999999999999994,-0.0050000000000000044,0.040000000000000036,0.125,0.235,0.365,0.48,0.6,0.64,0.625,0.47,0.255,-0.020000000000000018,-0.30000000000000004,-0.53,-0.7250000000000001,-0.8500000000000001,-0.8699999999999999,-0.8300000000000001,-0.7150000000000001,-0.6000000000000001,-0.4949999999999999,-0.395,-0.31000000000000005,-0.24,-0.21499999999999997,-0.14500000000000002,-0.12,-0.10999999999999999,-0.08999999999999997,-0.08999999999999997,-0.10499999999999998,-0.10999999999999999,-0.09499999999999997,-0.07499999999999996,-0.05499999999999994,-0.05499999999999994,-0.04499999999999993,-0.04499999999999993,-0.04499999999999993,-0.05499999999999994,-0.04999999999999993,-0.05999999999999994,-0.05999999999999994,-0.05499999999999994,-0.03500000000000003,-0.030000000000000027,-0.015000000000000013,-0.025000000000000022,-0.025000000000000022,-0.025000000000000022,-0.025000000000000022,-0.020000000000000018,-0.010000000000000009,-0.030000000000000027,-0.030000000000000027,-0.015000000000000013,-0.015000000000000013,0.0
28,0.095,0.065,0.04500000000000001,0.024999999999999994,0.024999999999999994,0.004999999999999977,-0.024999999999999994,-0.035,-0.04000000000000001,-0.04500000000000001,-0.04000000000000001,-0.03,-0.060000000000000026,-0.06499999999999997,-0.060000000000000026,-0.04500000000000001,-0.04500000000000001,-0.05000000000000002,-0.06499999999999997,-0.06999999999999998,-0.06999999999999998,-0.07499999999999998,-0.05000000000000002,-0.06499999999999997,-0.07499999999999998,-0.06999999999999998,-0.06999999999999998,-0.06499999999999997,-0.06499999999999997,-0.06999999999999998,-0.06999999999999998,-0.08499999999999999,-0.07999999999999999,-0.095,-0.12000000000000002,-0.155,-0.18999999999999997,-0.21,-0.22,-0.255,-0.2849999999999999,-0.255,-0.17500000000000002,-0.04000000000000001,0.12,0.30000000000000004,0.55,0.825,1.035,1.15,1.145,0.97,0.58,0.15,-0.145,-0.255,-0.23,-0.17,-0.11500000000000002,-0.10500000000000001,-0.11000000000000001,-0.12000000000000002,-0.11500000000000002,-0.1,-0.09,-0.1,-0.10500000000000001,-0.11500000000000002,-0.11500000000000002,-0.10500000000000001,-0.10500000000000001,-0.11000000000000001,-0.11000000000000001,-0.12000000000000002,-0.12000000000000002,-0.10500000000000001,-0.1,-0.10500000000000001,-0.11000000000000001,-0.11000000000000001,-0.11000000000000001,-0.11000000000000001,-0.1,-0.09,-0.10500000000000001,-0.12000000000000002,-0.1,-0.09,-0.095,-0.09,-0.10500000000000001,-0.10500000000000001,-0.10500000000000001,-0.09,-0.095,-0.11000000000000001,-0.10500000000000001,-0.11000000000000001,-0.1,-0.095
29,-0.0025000000000000022,-0.007500000000000007,-0.017500000000000016,-0.017500000000000016,-0.007500000000000007,0.012500000000000011,0.017499999999999988,-0.0025000000000000022,-0.012500000000000011,-0.017500000000000016,-0.0025000000000000022,0.007500000000000007,0.012500000000000011,-0.007500000000000007,-0.017500000000000016,-0.012500000000000011,-0.007500000000000007,0.022499999999999992,0.027499999999999997,0.012500000000000011,0.007500000000000007,0.017499999999999988,0.022499999999999992,0.037500000000000006,0.05249999999999999,0.04749999999999999,0.057499999999999996,0.057499999999999996,0.11249999999999999,0.1525,0.1925,0.2475,0.3125,0.3925,0.46749999999999997,0.5175000000000001,0.5025,0.46249999999999997,0.4025,0.3275,0.2775,0.2675,0.2975,0.3725,0.4775,0.6275,0.7925,0.9424999999999999,1.0375,1.0775,1.0625,0.9875,0.8825000000000001,0.7875000000000001,0.6975,0.6025,0.46749999999999997,0.3025,0.1475,0.05249999999999999,-0.057499999999999996,-0.1375,-0.1975,-0.2425,-0.23249999999999998,-0.21750000000000003,-0.2025,-0.2025,-0.14750000000000002,-0.10749999999999998,-0.07750000000000001,-0.03749999999999998,-0.03749999999999998,-0.04749999999999999,-0.0675,-0.0625,-0.04249999999999998,-0.03749999999999998,-0.03250000000000003,-0.03250000000000003,-0.04749999999999999,-0.04249999999999998,-0.04749999999999999,-0.04249999999999998,-0.012500000000000011,-0.02250000000000002,-0.027500000000000024,-0.027500000000000024,-0.012500000000000011,-0.0025000000000000022,-0.0025000000000000022,-0.02250000000000002,-0.017500000000000016,-0.03250000000000003,-0.017500000000000016,0.007500000000000007,0.007500000000000007,0.012500000000000011,-0.0025000000000000022,0.0025000000000000022
30,0.0050000000000000044,0.0050000000000000044,-0.009999999999999995,-0.024999999999999994,-0.045,-0.035,-0.024999999999999994,-0.015,-0.039999999999999994,-0.045,-0.08,-0.06999999999999999,-0.06,-0.06,-0.09000000000000001,-0.09500000000000001,-0.12499999999999999,-0.12499999999999999,-0.11,-0.09000000000000001,-0.08,-0.09999999999999999,-0.115,-0.12499999999999999,-0.135,-0.14500000000000002,-0.175,-0.21000000000000002,-0.22499999999999998,-0.245,-0.25,-0.26,-0.275,-0.28500000000000003,-0.29000000000000004,-0.28,-0.27,-0.26,-0.235,-0.20500000000000002,-0.195,-0.2,-0.185,-0.16499999999999998,-0.16999999999999998,-0.175,-0.175,-0.16499999999999998,-0.135,-0.09999999999999999,-0.11999999999999998,-0.15000000000000002,-0.21000000000000002,-0.26,-0.32000000000000006,-0.355,-0.39,-0.37,-0.33499999999999996,-0.28,-0.25,-0.25,-0.24,-0.245,-0.235,-0.22999999999999998,-0.21500000000000002,-0.185,-0.16000000000000003,-0.14,-0.12499999999999999,-0.11,-0.09000000000000001,-0.075,-0.065,-0.05499999999999999,-0.03,-0.03,-0.009999999999999995,-0.03,-0.039999999999999994,-0.05,-0.045,-0.045,-0.039999999999999994,-0.019999999999999997,-0.015,-0.024999999999999994,-0.024999999999999994,-0.024999999999999994,-0.019999999999999997,-0.009999999999999995,0.0,-0.009999999999999995,-0.015,-0.015,-0.0049999999999999975,0.0,-0.0049999999999999975,-0.0049999999999999975
31,0.007500000000000007,-0.012500000000000011,-0.012500000000000011,-0.03750000000000003,-0.03750000000000003,-0.05250000000000005,-0.05750000000000005,-0.08250000000000007,-0.10249999999999998,-0.10749999999999998,-0.10749999999999998,-0.1275,-0.1225,-0.1225,-0.1375,-0.14250000000000002,-0.15749999999999992,-0.15749999999999992,-0.15749999999999992,-0.16250000000000003,-0.16749999999999993,-0.16749999999999993,-0.15250000000000002,-0.1375,-0.15250000000000002,-0.1325,-0.16250000000000003,-0.17250000000000004,-0.16250000000000003,-0.17250000000000004,-0.17749999999999994,-0.18250000000000005,-0.16250000000000003,-0.16250000000000003,-0.14250000000000002,-0.1375,-0.1375,-0.1275,-0.1225,-0.14250000000000002,-0.1275,-0.10749999999999998,-0.06750000000000006,0.02250000000000002,0.1175,0.2425,0.3974999999999999,0.5325,0.6225,0.6924999999999999,0.6725000000000001,0.5425,0.34249999999999997,0.09249999999999997,-0.16250000000000003,-0.4025,-0.6225,-0.7975000000000001,-0.8825000000000001,-0.8825000000000001,-0.8075000000000001,-0.6975,-0.5825,-0.4925000000000001,-0.42749999999999994,-0.3775000000000001,-0.32750000000000007,-0.2675,-0.20749999999999996,-0.15749999999999992,-0.1225,-0.08750000000000008,-0.08750000000000008,-0.07750000000000007,-0.10749999999999998,-0.10749999999999998,-0.11249999999999999,-0.11249999999999999,-0.09749999999999998,-0.08250000000000007,-0.06250000000000006,-0.05750000000000005,-0.04250000000000004,-0.03750000000000003,-0.027500000000000024,-0.03250000000000003,-0.027500000000000024,-0.03250000000000003,-0.04250000000000004,-0.04250000000000004,-0.04250000000000004,-0.03250000000000003,-0.02250000000000002,-0.027500000000000024,-0.0025000000000000022,-0.0025000000000000022,0.017500000000000016,0.012500000000000011,0.007500000000000007,-0.007500000000000007
32,-0.017500000000000016,-0.0025000000000000022,0.012500000000000011,0.012500000000000011,-0.007500000000000007,-0.03250000000000003,-0.04249999999999993,-0.08749999999999997,-0.11249999999999988,-0.1375,-0.16750000000000004,-0.1424999999999999,-0.1424999999999999,-0.1275,-0.11249999999999988,-0.11249999999999988,-0.1275,-0.10749999999999998,-0.1275,-0.1375,-0.16249999999999992,-0.16750000000000004,-0.17750000000000005,-0.16750000000000004,-0.15750000000000003,-0.1424999999999999,-0.14750000000000002,-0.1375,-0.1375,-0.1375,-0.1424999999999999,-0.1375,-0.1424999999999999,-0.1524999999999999,-0.1524999999999999,-0.1424999999999999,-0.1375,-0.12249999999999989,-0.12249999999999989,-0.10749999999999998,-0.09249999999999997,-0.07749999999999996,-0.03250000000000003,0.03750000000000003,0.1175,0.22749999999999998,0.3625,0.4925000000000001,0.5825,0.6375,0.5825,0.42750000000000005,0.20750000000000007,-0.05749999999999994,-0.33749999999999997,-0.5725,-0.7574999999999998,-0.8724999999999998,-0.8924999999999998,-0.8274999999999999,-0.7374999999999998,-0.6074999999999999,-0.4974999999999999,-0.40750000000000003,-0.3425000000000001,-0.2725,-0.23749999999999988,-0.17249999999999993,-0.14750000000000002,-0.12249999999999989,-0.12249999999999989,-0.12249999999999989,-0.12249999999999989,-0.10749999999999998,-0.10249999999999987,-0.10249999999999987,-0.09749999999999998,-0.08749999999999997,-0.11249999999999988,-0.08249999999999996,-0.08749999999999997,-0.09749999999999998,-0.08249999999999996,-0.06749999999999995,-0.062499999999999944,-0.04249999999999993,-0.03749999999999992,-0.02250000000000002,-0.027500000000000024,-0.03250000000000003,-0.04749999999999993,-0.04249999999999993,-0.04749999999999993,-0.04749999999999993,-0.04249999999999993,-0.02250000000000002,-0.02250000000000002,0.0025000000000000022,-0.0025000000000000022,0.017500000000000016
33,-0.037500000000000006,-0.012499999999999983,-0.017499999999999988,-0.022499999999999992,-0.017499999999999988,-0.017499999999999988,-0.0025000000000000022,0.012500000000000011,0.007500000000000007,-0.0025000000000000022,-0.0025000000000000022,-0.012499999999999983,-0.007500000000000007,0.0025000000000000022,0.0025000000000000022,-0.007500000000000007,-0.007500000000000007,-0.0025000000000000022,0.037500000000000006,0.037500000000000006,0.04250000000000001,0.0325,0.0325,0.057499999999999996,0.0675,0.0675,0.057499999999999996,0.0625,0.0675,0.1125,0.1725,0.2375,0.2975,0.3275,0.3775,0.41750000000000004,0.4625,0.4775,0.4375,0.3575,0.2575,0.20750000000000002,0.2175,0.2625,0.3575,0.4675,0.5925,0.7224999999999999,0.8425,0.9024999999999999,0.9024999999999999,0.8625,0.7574999999999998,0.6675,0.5874999999999999,0.5175000000000001,0.4325,0.3275,0.1925,0.07250000000000001,-0.0025000000000000022,-0.04249999999999998,-0.08750000000000002,-0.1375,-0.16749999999999998,-0.16249999999999998,-0.1325,-0.10749999999999998,-0.08250000000000002,-0.0625,-0.04249999999999998,-0.027499999999999997,0.0025000000000000022,0.012500000000000011,0.012500000000000011,-0.0025000000000000022,-0.022499999999999992,-0.012499999999999983,0.022499999999999992,0.037500000000000006,0.037500000000000006,0.027499999999999997,0.007500000000000007,-0.012499999999999983,0.0025000000000000022,0.012500000000000011,0.017500000000000016,0.012500000000000011,-0.012499999999999983,-0.0025000000000000022,0.022499999999999992,0.04250000000000001,0.04250000000000001,0.0325,0.037500000000000006,0.047500000000000014,0.0675,0.047500000000000014,0.047500000000000014,0.037500000000000006
34,0.065,0.044999999999999984,0.020000000000000018,-0.015000000000000013,-0.0050000000000000044,-0.010000000000000009,-0.0050000000000000044,-0.019999999999999962,-0.024999999999999967,-0.034999999999999976,-0.034999999999999976,-0.034999999999999976,-0.03999999999999998,-0.03999999999999998,-0.02999999999999997,-0.03999999999999998,-0.034999999999999976,-0.034999999999999976,-0.034999999999999976,-0.02999999999999997,-0.04999999999999999,-0.04999999999999999,-0.03999999999999998,-0.034999999999999976,-0.044999999999999984,-0.034999999999999976,-0.05499999999999999,-0.065,-0.06,-0.06,-0.03999999999999998,-0.04999999999999999,-0.04999999999999999,-0.07500000000000001,-0.07,-0.10499999999999998,-0.135,-0.15499999999999997,-0.185,-0.24499999999999994,-0.25999999999999995,-0.19,-0.06,0.08500000000000002,0.24,0.45,0.73,1.0,1.1900000000000002,1.26,1.165,0.8800000000000001,0.465,0.125,-0.08000000000000002,-0.15999999999999998,-0.15999999999999998,-0.125,-0.06,-0.06,-0.06,-0.065,-0.06,-0.07,-0.065,-0.06,-0.06,-0.065,-0.07,-0.065,-0.065,-0.07,-0.05499999999999999,-0.06,-0.065,-0.08000000000000002,-0.07500000000000001,-0.07,-0.065,-0.065,-0.065,-0.08000000000000002,-0.04999999999999999,-0.065,-0.05499999999999999,-0.065,-0.06,-0.065,-0.06,-0.044999999999999984,-0.03999999999999998,-0.03999999999999998,-0.05499999999999999,-0.065,-0.065,-0.06,-0.04999999999999999,-0.05499999999999999,-0.065,-0.065
35,0.065,0.040000000000000036,0.03500000000000003,0.040000000000000036,0.010000000000000009,0.010000000000000009,-0.009999999999999953,-0.019999999999999962,-0.019999999999999962,-0.009999999999999953,-0.009999999999999953,-0.024999999999999967,-0.02999999999999997,-0.04999999999999999,-0.034999999999999976,-0.03999999999999998,-0.03999999999999998,-0.044999999999999984,-0.044999999999999984,-0.05499999999999999,-0.03999999999999998,-0.03999999999999998,-0.034999999999999976,-0.05499999999999999,-0.044999999999999984,-0.044999999999999984,-0.03999999999999998,-0.024999999999999967,-0.024999999999999967,-0.03999999999999998,-0.044999999999999984,-0.05499999999999999,-0.06,-0.07499999999999996,-0.125,-0.15499999999999997,-0.15999999999999998,-0.16999999999999998,-0.185,-0.22500000000000003,-0.24999999999999994,-0.21500000000000002,-0.09499999999999997,0.04500000000000004,0.22500000000000003,0.425,0.7050000000000001,0.99,1.2,1.255,1.145,0.8200000000000001,0.36500000000000005,-0.019999999999999962,-0.16999999999999998,-0.185,-0.12,-0.07,-0.03999999999999998,-0.05499999999999999,-0.07,-0.08499999999999996,-0.07999999999999996,-0.065,-0.07999999999999996,-0.07999999999999996,-0.08999999999999997,-0.08999999999999997,-0.07999999999999996,-0.07499999999999996,-0.07499999999999996,-0.07999999999999996,-0.09499999999999997,-0.08999999999999997,-0.07499999999999996,-0.07,-0.06,-0.07499999999999996,-0.07999999999999996,-0.08499999999999996,-0.07499999999999996,-0.065,-0.07,-0.07,-0.07999999999999996,-0.07999999999999996,-0.07499999999999996,-0.06,-0.07499999999999996,-0.07,-0.07999999999999996,-0.08499999999999996,-0.07999999999999996,-0.08499999999999996,-0.07999999999999996,-0.07999999999999996,-0.08499999999999996,-0.08999999999999997,-0.08499999999999996,-0.065
36,0.08249999999999999,0.05249999999999999,0.027499999999999997,0.017499999999999988,0.007499999999999979,0.0024999999999999745,-0.007500000000000034,-0.007500000000000034,-0.027499999999999997,-0.04250000000000001,-0.047500000000000014,-0.037500000000000006,-0.012500000000000039,-0.027499999999999997,-0.027499999999999997,-0.0325,-0.037500000000000006,-0.05250000000000002,-0.04250000000000001,-0.037500000000000006,-0.047500000000000014,-0.037500000000000006,-0.047500000000000014,-0.037500000000000006,-0.04250000000000001,-0.027499999999999997,-0.037500000000000006,-0.04250000000000001,-0.05250000000000002,-0.037500000000000006,-0.04250000000000001,-0.06250000000000003,-0.0975,-0.1525,-0.18750000000000003,-0.19250000000000003,-0.2275,-0.26750000000000007,-0.24250000000000002,-0.1675,-0.04250000000000001,0.08249999999999999,0.20249999999999999,0.3425,0.5475,0.7474999999999999,0.9524999999999999,1.1275,1.2175,1.2575,1.1425,0.8474999999999999,0.39749999999999996,0.05249999999999999,-0.13750000000000004,-0.1625,-0.14250000000000004,-0.0975,-0.07250000000000004,-0.07250000000000004,-0.07750000000000004,-0.07250000000000004,-0.07750000000000004,-0.0875,-0.0925,-0.0875,-0.0875,-0.0875,-0.0925,-0.10750000000000001,-0.10750000000000001,-0.0925,-0.0875,-0.0925,-0.07750000000000004,-0.0875,-0.10250000000000001,-0.0925,-0.08249999999999999,-0.08249999999999999,-0.08249999999999999,-0.0875,-0.0875,-0.07750000000000004,-0.06750000000000003,-0.06250000000000003,-0.06750000000000003,-0.08249999999999999,-0.0875,-0.07250000000000004,-0.06250000000000003,-0.06750000000000003,-0.06250000000000003,-0.07750000000000004,-0.07750000000000004,-0.07250000000000004,-0.06750000000000003,-0.06750000000000003,-0.06750000000000003,-0.08249999999999999
37,-0.03249999999999997,-0.02749999999999997,-0.02749999999999997,-0.02749999999999997,-0.04749999999999999,-0.0675,-0.0675,-0.09249999999999992,-0.11249999999999993,-0.12750000000000006,-0.14750000000000008,-0.15249999999999997,-0.14750000000000008,-0.13750000000000007,-0.13750000000000007,-0.13750000000000007,-0.13249999999999995,-0.14249999999999996,-0.15249999999999997,-0.1675000000000001,-0.1775000000000001,-0.1825,-0.1875000000000001,-0.1825,-0.1675000000000001,-0.14249999999999996,-0.14750000000000008,-0.15750000000000008,-0.14249999999999996,-0.14249999999999996,-0.15249999999999997,-0.16249999999999998,-0.15750000000000008,-0.1725,-0.15750000000000008,-0.1775000000000001,-0.15249999999999997,-0.14249999999999996,-0.14249999999999996,-0.08750000000000002,-0.09750000000000003,-0.05249999999999999,0.007499999999999951,0.09750000000000003,0.1875,0.3075,0.4425,0.5875,0.6975,0.7424999999999999,0.6775,0.5275,0.3025,0.02749999999999997,-0.26250000000000007,-0.5275,-0.7525000000000001,-0.8624999999999999,-0.8825,-0.8025000000000001,-0.6625,-0.5175,-0.40249999999999997,-0.3025000000000001,-0.22250000000000003,-0.15249999999999997,-0.13249999999999995,-0.09750000000000003,-0.09249999999999992,-0.10249999999999992,-0.10249999999999992,-0.11249999999999993,-0.10750000000000004,-0.09249999999999992,-0.08250000000000002,-0.05249999999999999,-0.03749999999999998,-0.04249999999999998,-0.04249999999999998,-0.05249999999999999,-0.05249999999999999,-0.05249999999999999,-0.05249999999999999,-0.04749999999999999,-0.03249999999999997,-0.02749999999999997,-0.02749999999999997,-0.007500000000000062,-0.0025000000000000577,0.007499999999999951,-0.007500000000000062,0.0024999999999999467,-0.0025000000000000577,0.0024999999999999467,-0.0025000000000000577,0.0024999999999999467,0.012499999999999956,0.012499999999999956,0.012499999999999956,0.03249999999999997
38,0.0625,0.04249999999999998,0.017500000000000016,0.012500000000000011,0.007500000000000007,0.0025000000000000022,-0.017500000000000016,-0.02749999999999997,-0.03749999999999998,-0.04749999999999999,-0.03249999999999997,-0.04249999999999998,-0.03249999999999997,-0.04749999999999999,-0.057499999999999996,-0.05249999999999999,-0.03749999999999998,-0.04749999999999999,-0.04749999999999999,-0.04749999999999999,-0.057499999999999996,-0.05249999999999999,-0.04249999999999998,-0.03249999999999997,-0.04249999999999998,-0.05249999999999999,-0.0675,-0.04749999999999999,-0.04249999999999998,-0.03249999999999997,-0.03249999999999997,-0.057499999999999996,-0.08250000000000002,-0.10749999999999998,-0.1325,-0.16249999999999998,-0.1725,-0.20750000000000002,-0.24250000000000005,-0.23750000000000004,-0.16749999999999998,-0.05249999999999999,0.0675,0.2025,0.3725,0.6174999999999999,0.8775000000000001,1.0775000000000001,1.2275,1.2774999999999999,1.1825,0.9575,0.6525000000000001,0.3575,0.1325,-0.012500000000000011,-0.11249999999999999,-0.1925,-0.1975,-0.1775,-0.14750000000000002,-0.1225,-0.09249999999999997,-0.08750000000000002,-0.08250000000000002,-0.07250000000000001,-0.07250000000000001,-0.0675,-0.0675,-0.07250000000000001,-0.07250000000000001,-0.05249999999999999,-0.0625,-0.0675,-0.07250000000000001,-0.07250000000000001,-0.0625,-0.0675,-0.0625,-0.07250000000000001,-0.07750000000000001,-0.07750000000000001,-0.07250000000000001,-0.0675,-0.0625,-0.0625,-0.08250000000000002,-0.07250000000000001,-0.057499999999999996,-0.0675,-0.0675,-0.07250000000000001,-0.07750000000000001,-0.07250000000000001,-0.0625,-0.0625,-0.057499999999999996,-0.0625,-0.07750000000000001,-0.0625
39,0.0325,0.037500000000000006,0.0325,0.0325,0.017499999999999988,0.017499999999999988,0.012499999999999983,-0.0024999999999999745,0.00250000000000003,-0.0024999999999999745,0.00250000000000003,0.00250000000000003,-0.007499999999999979,-0.012499999999999983,-0.0024999999999999745,-0.0024999999999999745,-0.007499999999999979,-0.022499999999999992,-0.022499999999999992,-0.027499999999999997,-0.012499999999999983,-0.017499999999999988,-0.027499999999999997,-0.022499999999999992,-0.027499999999999997,-0.0325,-0.022499999999999992,-0.022499999999999992,-0.027499999999999997,-0.027499999999999997,-0.037500000000000006,-0.027499999999999997,-0.0325,-0.04250000000000001,-0.06249999999999997,-0.10250000000000001,-0.12749999999999997,-0.13749999999999998,-0.1675,-0.19749999999999998,-0.19749999999999998,-0.13249999999999998,-0.0325,0.10750000000000001,0.2525,0.4425,0.6974999999999999,0.9375,1.0875000000000001,1.1575,1.0925,0.8674999999999999,0.5125,0.1675,-0.06249999999999997,-0.1475,-0.12749999999999997,-0.07749999999999999,-0.04250000000000001,-0.027499999999999997,-0.05749999999999997,-0.05250000000000002,-0.04250000000000001,-0.022499999999999992,-0.0325,-0.037500000000000006,-0.05250000000000002,-0.04250000000000001,-0.05250000000000002,-0.0325,-0.04250000000000001,-0.037500000000000006,-0.05749999999999997,-0.05749999999999997,-0.047500000000000014,-0.04250000000000001,-0.04250000000000001,-0.047500000000000014,-0.06749999999999998,-0.05250000000000002,-0.047500000000000014,-0.0325,-0.04250000000000001,-0.047500000000000014,-0.05250000000000002,-0.047500000000000014,-0.037500000000000006,-0.04250000000000001,-0.04250000000000001,-0.05250000000000002,-0.05749999999999997,-0.05250000000000002,-0.04250000000000001,-0.05250000000000002,-0.05250000000000002,-0.037500000000000006,-0.047500000000000014,-0.047500000000000014,-0.04250000000000001,-0.0325
40,0.007500000000000007,-0.0025000000000000022,-0.017499999999999905,-0.02249999999999991,-0.03249999999999992,-0.04749999999999993,-0.05749999999999994,-0.06749999999999995,-0.08749999999999997,-0.08749999999999997,-0.08249999999999996,-0.10749999999999998,-0.11249999999999999,-0.11249999999999999,-0.1275,-0.1325,-0.1474999999999999,-0.1375,-0.1375,-0.1375,-0.1424999999999999,-0.1375,-0.1275,-0.1375,-0.1325,-0.1424999999999999,-0.16249999999999992,-0.15749999999999992,-0.17749999999999994,-0.16249999999999992,-0.1474999999999999,-0.1424999999999999,-0.1424999999999999,-0.1275,-0.1175,-0.1325,-0.10249999999999998,-0.11249999999999999,-0.10749999999999998,-0.1175,-0.11249999999999999,-0.10249999999999998,-0.03249999999999992,0.03250000000000003,0.1325,0.2725,0.40750000000000003,0.5425,0.6325000000000001,0.6875,0.6375,0.4975,0.29750000000000004,0.05250000000000005,-0.20249999999999996,-0.41750000000000004,-0.6174999999999999,-0.7525,-0.8274999999999999,-0.8324999999999998,-0.7574999999999998,-0.6624999999999999,-0.5425,-0.46749999999999986,-0.3875,-0.33249999999999985,-0.22749999999999987,-0.17249999999999993,-0.1175,-0.07749999999999996,-0.07249999999999995,-0.05749999999999994,-0.06749999999999995,-0.07749999999999996,-0.07249999999999995,-0.07249999999999995,-0.08249999999999996,-0.07249999999999995,-0.06749999999999995,-0.04749999999999993,-0.04249999999999993,-0.017499999999999905,-0.017499999999999905,-0.017499999999999905,-0.007500000000000007,-0.03249999999999992,-0.03249999999999992,-0.02249999999999991,-0.027499999999999913,-0.03249999999999992,-0.02249999999999991,-0.0025000000000000022,0.012500000000000011,0.027500000000000024,0.027500000000000024,0.027500000000000024,0.012500000000000011,0.012500000000000011,0.007500000000000007,-0.007500000000000007
41,0.017500000000000016,0.0025000000000000022,0.012500000000000011,0.012500000000000011,0.0025000000000000022,-0.007500000000000007,-0.017500000000000016,0.007500000000000007,0.012500000000000011,0.007500000000000007,0.012500000000000011,0.007500000000000007,-0.007500000000000007,0.0025000000000000022,0.0025000000000000022,0.0025000000000000022,0.0025000000000000022,-0.012500000000000011,-0.02749999999999997,-0.017500000000000016,-0.012500000000000011,-0.0025000000000000022,-0.017500000000000016,-0.022499999999999964,-0.022499999999999964,-0.017500000000000016,-0.007500000000000007,-0.012500000000000011,-0.022499999999999964,-0.04249999999999998,-0.07750000000000001,-0.10249999999999998,-0.10749999999999998,-0.1225,-0.16249999999999998,-0.20750000000000002,-0.24249999999999994,-0.1925,-0.1225,-0.03249999999999997,0.05249999999999999,0.10250000000000001,0.1675,0.2925,0.4425,0.6575,0.8875,1.0525,1.1724999999999999,1.2125,1.1275,0.8825000000000001,0.5175000000000001,0.1975,-0.022499999999999964,-0.1225,-0.1275,-0.10249999999999998,-0.057499999999999996,-0.04749999999999999,-0.05249999999999999,-0.04749999999999999,-0.04249999999999998,-0.017500000000000016,-0.02749999999999997,-0.02749999999999997,-0.03749999999999998,-0.03749999999999998,-0.022499999999999964,-0.03249999999999997,-0.04249999999999998,-0.03749999999999998,-0.04249999999999998,-0.02749999999999997,-0.03249999999999997,-0.03249999999999997,-0.03749999999999998,-0.057499999999999996,-0.057499999999999996,-0.03749999999999998,-0.03749999999999998,-0.02749999999999997,-0.03749999999999998,-0.04749999999999999,-0.04749999999999999,-0.03749999999999998,-0.02749999999999997,-0.03249999999999997,-0.02749999999999997,-0.02749999999999997,-0.03249999999999997,-0.022499999999999964,-0.017500000000000016,-0.017500000000000016,-0.02749999999999997,-0.02749999999999997,-0.03749999999999998,-0.022499999999999964,-0.02749999999999997,-0.017500000000000016
42,0.06999999999999998,0.04000000000000001,0.014999999999999986,0.004999999999999977,-2.7755575615628914e-17,-2.7755575615628914e-17,-0.004999999999999977,-0.01999999999999999,-0.04000000000000001,-0.035,-0.024999999999999994,-0.01999999999999999,-0.01999999999999999,-0.014999999999999986,-0.024999999999999994,-0.024999999999999994,-0.01999999999999999,-0.01999999999999999,-0.03,-0.04000000000000001,-0.04000000000000001,-0.04000000000000001,-0.024999999999999994,-0.014999999999999986,-0.01999999999999999,-0.01999999999999999,-0.04500000000000001,-0.035,-0.04000000000000001,-0.03,-0.03,-0.03,-0.05000000000000002,-0.09,-0.11500000000000002,-0.12000000000000002,-0.14000000000000004,-0.17999999999999997,-0.23500000000000001,-0.24000000000000002,-0.17999999999999997,-0.05000000000000002,0.06499999999999997,0.185,0.375,0.625,0.91,1.1049999999999998,1.215,1.22,1.0599999999999998,0.7400000000000001,0.41000000000000003,0.15,-0.014999999999999986,-0.11500000000000002,-0.16999999999999996,-0.205,-0.21,-0.17999999999999997,-0.15999999999999995,-0.12500000000000003,-0.1,-0.09,-0.08499999999999999,-0.07999999999999999,-0.07999999999999999,-0.06999999999999998,-0.07999999999999999,-0.07499999999999998,-0.06999999999999998,-0.04500000000000001,-0.05500000000000002,-0.06499999999999997,-0.07499999999999998,-0.07999999999999999,-0.06499999999999997,-0.05500000000000002,-0.06499999999999997,-0.060000000000000026,-0.06999999999999998,-0.06499999999999997,-0.04500000000000001,-0.04000000000000001,-0.04500000000000001,-0.06999999999999998,-0.06999999999999998,-0.07499999999999998,-0.05000000000000002,-0.060000000000000026,-0.05000000000000002,-0.060000000000000026,-0.06999999999999998,-0.07499999999999998,-0.06499999999999997,-0.060000000000000026,-0.060000000000000026,-0.06999999999999998,-0.06499999999999997,-0.06999999999999998
43,-0.0049999999999999906,-1.3877787807814457e-17,0.020000000000000004,0.02500000000000001,0.020000000000000004,-0.0049999999999999906,0.009999999999999995,0.0049999999999999906,0.02500000000000001,0.03499999999999999,0.02500000000000001,0.015,0.009999999999999995,0.009999999999999995,0.02500000000000001,0.039999999999999994,0.020000000000000004,0.015,0.009999999999999995,0.020000000000000004,0.029999999999999985,0.03499999999999999,0.029999999999999985,0.03499999999999999,0.05,0.075,0.11499999999999999,0.14,0.16499999999999998,0.2,0.24,0.32,0.4,0.45,0.495,0.505,0.46499999999999997,0.42500000000000004,0.365,0.31,0.295,0.31,0.365,0.475,0.615,0.75,0.875,0.97,1.045,1.08,1.065,1.0,0.875,0.79,0.71,0.615,0.54,0.46499999999999997,0.35,0.21500000000000002,0.09999999999999999,-0.020000000000000004,-0.10000000000000002,-0.16000000000000003,-0.19999999999999996,-0.24,-0.255,-0.235,-0.17500000000000004,-0.14,-0.11499999999999998,-0.075,-0.06999999999999999,-0.06499999999999999,-0.05499999999999998,-0.05000000000000003,-0.045000000000000026,-0.05499999999999998,-0.059999999999999984,-0.05499999999999998,-0.04000000000000002,-0.030000000000000013,-0.030000000000000013,-0.030000000000000013,-0.05499999999999998,-0.05000000000000003,-0.03500000000000002,-0.020000000000000004,-0.020000000000000004,-0.030000000000000013,-0.03500000000000002,-0.030000000000000013,-0.015,-0.009999999999999995,-1.3877787807814457e-17,-0.020000000000000004,-0.020000000000000004,-0.015,-0.0049999999999999906,0.0049999999999999906
44,0.03749999999999998,0.01749999999999996,-0.012499999999999956,-0.02749999999999997,-0.05249999999999999,-0.05249999999999999,-0.07250000000000001,-0.07250000000000001,-0.07250000000000001,-0.09250000000000003,-0.10750000000000004,-0.11250000000000004,-0.13249999999999995,-0.15249999999999997,-0.14749999999999996,-0.16749999999999998,-0.1725,-0.16749999999999998,-0.1725,-0.1725,-0.1825,-0.1725,-0.15749999999999997,-0.15749999999999997,-0.16249999999999998,-0.1825,-0.1875,-0.1925,-0.1925,-0.2025,-0.2074999999999999,-0.1974999999999999,-0.1875,-0.1725,-0.1775,-0.14749999999999996,-0.16249999999999998,-0.16249999999999998,-0.15249999999999997,-0.13749999999999996,-0.14749999999999996,-0.11250000000000004,-0.09750000000000003,-0.03249999999999997,0.0625,0.1775,0.3125,0.4475,0.5675,0.6375,0.6225,0.5225,0.3225,0.08750000000000002,-0.1974999999999999,-0.4574999999999999,-0.6725,-0.8475,-0.9525,-0.9674999999999999,-0.9125,-0.7975,-0.6925,-0.6024999999999999,-0.5325000000000001,-0.4525,-0.38249999999999995,-0.3224999999999999,-0.24749999999999994,-0.1775,-0.14249999999999996,-0.10750000000000004,-0.10250000000000004,-0.10750000000000004,-0.11750000000000005,-0.12250000000000005,-0.12750000000000006,-0.13249999999999995,-0.13749999999999996,-0.12750000000000006,-0.11250000000000004,-0.09250000000000003,-0.07750000000000001,-0.0625,-0.0675,-0.057499999999999996,-0.0625,-0.07250000000000001,-0.0625,-0.07750000000000001,-0.0625,-0.057499999999999996,-0.057499999999999996,-0.04749999999999999,-0.02749999999999997,-0.01749999999999996,-0.012499999999999956,-0.007499999999999951,-0.03249999999999997,-0.03749999999999998
45,-0.007500000000000007,-0.02249999999999991,-0.03749999999999992,-0.04749999999999993,-0.06749999999999995,-0.07249999999999995,-0.07249999999999995,-0.08249999999999996,-0.10249999999999998,-0.10749999999999998,-0.10749999999999998,-0.11249999999999999,-0.1275,-0.1374999999999999,-0.1275,-0.1424999999999999,-0.1474999999999999,-0.1474999999999999,-0.1325,-0.1275,-0.1325,-0.1424999999999999,-0.1374999999999999,-0.1474999999999999,-0.1524999999999999,-0.1474999999999999,-0.18249999999999994,-0.18749999999999994,-0.17249999999999993,-0.15749999999999992,-0.16749999999999993,-0.16249999999999992,-0.1524999999999999,-0.1275,-0.1275,-0.1175,-0.10749999999999998,-0.1175,-0.1225,-0.1275,-0.10249999999999998,-0.05749999999999994,0.0025000000000000022,0.09250000000000008,0.21250000000000008,0.37750000000000006,0.5225,0.6475,0.7525,0.7625,0.6625000000000001,0.4725,0.21250000000000008,-0.08749999999999997,-0.34249999999999997,-0.5825,-0.7775000000000001,-0.8625,-0.8474999999999999,-0.7675000000000001,-0.6625000000000001,-0.5475000000000001,-0.45249999999999985,-0.3874999999999999,-0.33749999999999986,-0.2724999999999999,-0.21749999999999997,-0.16249999999999992,-0.10749999999999998,-0.08249999999999996,-0.06749999999999995,-0.062499999999999944,-0.07249999999999995,-0.08249999999999996,-0.09249999999999997,-0.09749999999999998,-0.09249999999999997,-0.08249999999999996,-0.07249999999999995,-0.05749999999999994,-0.04249999999999993,-0.02249999999999991,-0.017499999999999905,-0.0124999999999999,-0.02249999999999991,-0.027499999999999913,-0.04749999999999993,-0.052499999999999936,-0.04249999999999993,-0.027499999999999913,-0.027499999999999913,-0.0025000000000000022,0.02250000000000002,0.017500000000000016,0.012500000000000011,0.02250000000000002,0.017500000000000016,0.007500000000000007,0.012500000000000011,0.007500000000000007
46,-0.0025000000000000022,-0.0025000000000000022,-0.007499999999999979,-0.012499999999999983,-0.03249999999999999,-0.03749999999999999,-0.03249999999999999,-0.03249999999999999,-0.057499999999999996,-0.07749999999999999,-0.0925,-0.0875,-0.08249999999999999,-0.0875,-0.1025,-0.1175,-0.1275,-0.11249999999999999,-0.09749999999999999,-0.09749999999999999,-0.1025,-0.1175,-0.1175,-0.10749999999999998,-0.10749999999999998,-0.1025,-0.1025,-0.11249999999999999,-0.1225,-0.1225,-0.11249999999999999,-0.09749999999999999,-0.1025,-0.1175,-0.1275,-0.1175,-0.11249999999999999,-0.13249999999999998,-0.1475,-0.1625,-0.16749999999999998,-0.16749999999999998,-0.1825,-0.2075,-0.25749999999999995,-0.3425,-0.4075,-0.5025,-0.5775,-0.6275,-0.6224999999999999,-0.5775,-0.5175,-0.4575,-0.4425,-0.4375,-0.4175,-0.37249999999999994,-0.3275,-0.2875,-0.2325,-0.1825,-0.16749999999999998,-0.1625,-0.13249999999999998,-0.1225,-0.0925,-0.06749999999999999,-0.03749999999999999,-0.03249999999999999,-0.03249999999999999,-0.017499999999999988,-0.017499999999999988,-0.007499999999999979,-0.0025000000000000022,-0.027499999999999997,-0.042499999999999996,-0.042499999999999996,-0.03749999999999999,-0.017499999999999988,-0.007499999999999979,-0.017499999999999988,-0.017499999999999988,-0.022499999999999992,-0.012499999999999983,-0.0025000000000000022,-0.007499999999999979,-0.007499999999999979,-0.007499999999999979,-0.007499999999999979,0.007500000000000007,-0.0025000000000000022,-0.0025000000000000022,-0.012499999999999983,-0.0025000000000000022,0.017500000000000016,0.027499999999999997,0.027499999999999997,0.017500000000000016,0.0025000000000000022
47,0.007500000000000007,0.0025000000000000022,-0.017500000000000016,-0.03250000000000003,-0.07250000000000006,-0.08749999999999997,-0.10249999999999998,-0.1225,-0.1275,-0.1175,-0.1275,-0.1325,-0.11249999999999999,-0.1225,-0.1325,-0.14250000000000002,-0.15250000000000002,-0.15750000000000003,-0.18250000000000005,-0.19750000000000006,-0.18250000000000005,-0.16750000000000004,-0.16250000000000003,-0.14750000000000002,-0.15250000000000002,-0.14250000000000002,-0.15250000000000002,-0.16750000000000004,-0.16750000000000004,-0.17750000000000005,-0.18250000000000005,-0.18250000000000005,-0.15250000000000002,-0.14750000000000002,-0.1325,-0.1275,-0.1275,-0.1275,-0.1225,-0.1175,-0.10749999999999998,-0.05750000000000005,0.0025000000000000022,0.08749999999999997,0.21249999999999997,0.33749999999999997,0.4875,0.5874999999999999,0.6875,0.6924999999999999,0.6174999999999999,0.42750000000000005,0.20249999999999996,-0.05750000000000005,-0.30250000000000005,-0.5325,-0.7375,-0.8625,-0.9024999999999999,-0.8625,-0.7674999999999998,-0.6424999999999998,-0.5474999999999999,-0.4675000000000001,-0.3924999999999999,-0.3425000000000001,-0.28250000000000003,-0.22249999999999998,-0.17250000000000004,-0.1275,-0.08749999999999997,-0.07250000000000006,-0.07749999999999996,-0.07250000000000006,-0.08749999999999997,-0.09249999999999997,-0.10249999999999998,-0.10749999999999998,-0.10249999999999998,-0.09249999999999997,-0.08749999999999997,-0.07250000000000006,-0.06750000000000006,-0.05250000000000005,-0.03750000000000003,-0.03250000000000003,-0.03250000000000003,-0.03250000000000003,-0.03750000000000003,-0.03750000000000003,-0.04750000000000004,-0.03750000000000003,-0.03250000000000003,-0.012500000000000011,-0.012500000000000011,-0.0025000000000000022,-0.0025000000000000022,0.0025000000000000022,0.0025000000000000022,-0.007500000000000007
48,-0.012500000000000011,-0.007500000000000007,0.0025000000000000022,-0.007500000000000007,-0.012500000000000011,-0.012500000000000011,-0.03750000000000003,-0.06749999999999995,-0.08749999999999997,-0.1175,-0.1324999999999999,-0.1324999999999999,-0.1275,-0.1375,-0.11249999999999988,-0.1275,-0.1275,-0.1275,-0.1175,-0.1424999999999999,-0.1424999999999999,-0.1524999999999999,-0.16750000000000004,-0.16249999999999992,-0.17750000000000005,-0.16750000000000004,-0.16249999999999992,-0.16249999999999992,-0.15750000000000003,-0.14750000000000002,-0.1275,-0.12249999999999989,-0.1275,-0.1324999999999999,-0.1524999999999999,-0.1424999999999999,-0.1375,-0.1275,-0.12249999999999989,-0.10749999999999998,-0.08749999999999997,-0.03250000000000003,0.05750000000000005,0.14250000000000002,0.22749999999999998,0.3525,0.4925,0.6075000000000002,0.6875,0.6925000000000001,0.6375,0.4825000000000001,0.2775,0.017500000000000016,-0.23249999999999998,-0.4775000000000001,-0.6775,-0.7974999999999999,-0.8574999999999999,-0.8225,-0.7725,-0.6324999999999998,-0.5125,-0.4124999999999999,-0.32749999999999996,-0.23749999999999988,-0.19249999999999995,-0.1324999999999999,-0.1175,-0.08749999999999997,-0.07749999999999996,-0.08749999999999997,-0.08749999999999997,-0.08749999999999997,-0.07249999999999995,-0.07249999999999995,-0.04250000000000004,-0.062499999999999944,-0.04250000000000004,-0.027500000000000024,-0.02250000000000002,-0.03750000000000003,-0.04749999999999993,-0.04250000000000004,-0.062499999999999944,-0.062499999999999944,-0.03750000000000003,-0.02250000000000002,-0.017500000000000016,0.0025000000000000022,0.007500000000000007,0.007500000000000007,-0.0025000000000000022,0.007500000000000007,-0.012500000000000011,-0.017500000000000016,-0.02250000000000002,-0.0025000000000000022,-0.0025000000000000022,0.012500000000000011
49,0.04000000000000001,0.015000000000000013,-0.0050000000000000044,-0.0050000000000000044,0.010000000000000009,0.035,0.03,0.035,0.010000000000000009,0.0050000000000000044,0.0050000000000000044,0.0050000000000000044,0.01999999999999999,0.024999999999999994,0.01999999999999999,0.024999999999999994,0.035,0.065,0.05500000000000001,0.05500000000000001,0.035,0.01999999999999999,0.015000000000000013,0.01999999999999999,0.035,0.045,0.065,0.095,0.14,0.18,0.22,0.27999999999999997,0.33,0.42,0.5149999999999999,0.5900000000000001,0.615,0.6399999999999999,0.605,0.5549999999999999,0.5049999999999999,0.49000000000000005,0.49500000000000005,0.54,0.635,0.7649999999999999,0.9099999999999999,1.0350000000000001,1.115,1.1500000000000001,1.135,1.0650000000000002,0.97,0.875,0.7849999999999999,0.7150000000000001,0.635,0.5549999999999999,0.47500000000000003,0.39999999999999997,0.295,0.175,0.05,-0.035,-0.1,-0.12000000000000002,-0.15,-0.165,-0.17,-0.145,-0.11500000000000002,-0.07499999999999998,-0.04999999999999999,-0.065,-0.065,-0.07999999999999999,-0.09,-0.07,-0.07499999999999998,-0.09,-0.09,-0.07999999999999999,-0.06,-0.044999999999999984,-0.05499999999999999,-0.07499999999999998,-0.095,-0.1,-0.08499999999999999,-0.06,-0.05499999999999999,-0.06,-0.07,-0.07,-0.04999999999999999,-0.04000000000000001,-0.03,-0.04000000000000001,-0.06,-0.04000000000000001
50,-0.02250000000000002,-0.0025000000000000022,0.012500000000000011,0.007500000000000007,-0.007500000000000007,-0.0025000000000000022,-0.0025000000000000022,0.007500000000000007,0.027500000000000024,0.012500000000000011,0.012500000000000011,-0.007500000000000007,-0.03250000000000003,-0.007500000000000007,0.02250000000000002,0.017500000000000016,0.007500000000000007,-0.0025000000000000022,-0.02250000000000002,-0.012500000000000011,-0.0025000000000000022,0.0025000000000000022,0.017500000000000016,-0.0025000000000000022,0.012500000000000011,0.03250000000000003,0.08250000000000002,0.10250000000000004,0.1175,0.14250000000000002,0.21750000000000003,0.3225,0.41750000000000004,0.48250000000000004,0.5325,0.5375000000000001,0.5125,0.4525,0.37250000000000005,0.2725,0.1925,0.15750000000000003,0.21750000000000003,0.35250000000000004,0.5025,0.6675,0.8125,0.8925000000000001,0.9125000000000001,0.9175,0.8574999999999999,0.7725,0.6575,0.5375000000000001,0.41250000000000003,0.2925,0.1875,0.07250000000000001,-0.052499999999999936,-0.1275,-0.17749999999999994,-0.20249999999999996,-0.21249999999999997,-0.20749999999999996,-0.20749999999999996,-0.19249999999999995,-0.15750000000000003,-0.09749999999999998,-0.07249999999999995,-0.06749999999999995,-0.07249999999999995,-0.07749999999999996,-0.06749999999999995,-0.06749999999999995,-0.07749999999999996,-0.05749999999999994,-0.07249999999999995,-0.07249999999999995,-0.062499999999999944,-0.04749999999999993,-0.04249999999999993,-0.03750000000000003,-0.04249999999999993,-0.05749999999999994,-0.05749999999999994,-0.04749999999999993,-0.02250000000000002,-0.03250000000000003,-0.04749999999999993,-0.04749999999999993,-0.05749999999999994,-0.04249999999999993,-0.02250000000000002,-0.007500000000000007,-0.027500000000000024,-0.03250000000000003,-0.017500000000000016,-0.0025000000000000022,0.02250000000000002,0.02250000000000002
51,0.09749999999999999,0.1025,0.0775,0.04749999999999997,0.022500000000000006,-0.002500000000000016,0.0024999999999999883,-0.002500000000000016,-0.012500000000000025,-0.03249999999999999,-0.05750000000000001,-0.06750000000000002,-0.05750000000000001,-0.05750000000000001,-0.06750000000000002,-0.05750000000000001,-0.07250000000000002,-0.06750000000000002,-0.06750000000000002,-0.06250000000000001,-0.07250000000000002,-0.08249999999999998,-0.09249999999999999,-0.08249999999999998,-0.07750000000000003,-0.07750000000000003,-0.07750000000000003,-0.09249999999999999,-0.09749999999999999,-0.1025,-0.09249999999999999,-0.08249999999999998,-0.07750000000000003,-0.09749999999999999,-0.11750000000000001,-0.15749999999999997,-0.1975,-0.20750000000000002,-0.24249999999999994,-0.2825,-0.3025,-0.25249999999999995,-0.1375,0.022500000000000006,0.1775,0.3875,0.6375,0.9225,1.1375000000000002,1.2225000000000001,1.1225,0.8375,0.4275,0.042500000000000024,-0.1725,-0.22250000000000003,-0.1775,-0.14249999999999996,-0.1125,-0.11750000000000001,-0.09749999999999999,-0.1025,-0.1025,-0.1025,-0.1125,-0.1075,-0.1025,-0.1075,-0.09249999999999999,-0.08749999999999998,-0.09749999999999999,-0.1125,-0.1125,-0.1075,-0.09249999999999999,-0.1025,-0.1125,-0.12250000000000001,-0.1075,-0.1125,-0.1025,-0.12250000000000001,-0.1275,-0.11750000000000001,-0.1125,-0.1025,-0.1025,-0.1025,-0.1075,-0.1075,-0.1075,-0.08249999999999998,-0.09249999999999999,-0.1025,-0.1125,-0.11750000000000001,-0.1025,-0.1025,-0.09249999999999999,-0.09749999999999999
52,0.0625,0.03250000000000003,-0.0025000000000000022,-0.0025000000000000022,-0.007499999999999951,-0.01749999999999996,-0.03249999999999997,-0.04249999999999998,-0.05249999999999999,-0.04249999999999998,-0.03249999999999997,-0.03249999999999997,-0.03749999999999998,-0.05249999999999999,-0.0675,-0.0625,-0.05249999999999999,-0.04249999999999998,-0.04249999999999998,-0.05249999999999999,-0.0625,-0.07249999999999995,-0.0675,-0.04749999999999999,-0.05249999999999999,-0.05249999999999999,-0.057499999999999996,-0.05249999999999999,-0.04249999999999998,-0.04249999999999998,-0.04249999999999998,-0.0625,-0.07749999999999996,-0.08749999999999997,-0.1175,-0.13749999999999996,-0.14749999999999996,-0.1825,-0.22749999999999992,-0.25249999999999995,-0.20750000000000002,-0.11249999999999999,-0.007499999999999951,0.11750000000000002,0.24750000000000003,0.4475,0.6975,0.9275,1.0975,1.1675,1.1275000000000002,0.9675,0.6725000000000001,0.3375,0.057499999999999996,-0.1175,-0.1875,-0.15749999999999997,-0.11249999999999999,-0.07749999999999996,-0.0625,-0.0675,-0.07749999999999996,-0.07249999999999995,-0.057499999999999996,-0.05249999999999999,-0.0625,-0.0675,-0.07249999999999995,-0.08249999999999996,-0.07749999999999996,-0.0675,-0.0675,-0.0625,-0.07749999999999996,-0.0675,-0.057499999999999996,-0.0625,-0.05249999999999999,-0.07249999999999995,-0.0675,-0.0675,-0.057499999999999996,-0.05249999999999999,-0.05249999999999999,-0.0625,-0.07249999999999995,-0.057499999999999996,-0.04749999999999999,-0.057499999999999996,-0.057499999999999996,-0.057499999999999996,-0.0675,-0.05249999999999999,-0.0625,-0.05249999999999999,-0.05249999999999999,-0.04749999999999999,-0.0675,-0.0625
53,-0.0425,-0.0425,-0.0225,-0.0225,-0.032499999999999994,-0.0525,-0.07749999999999999,-0.08249999999999999,-0.08249999999999999,-0.0625,-0.08249999999999999,-0.0975,-0.10250000000000001,-0.0925,-0.07250000000000001,-0.0875,-0.0875,-0.0925,-0.10750000000000001,-0.10250000000000001,-0.08249999999999999,-0.0925,-0.0925,-0.11249999999999999,-0.10750000000000001,-0.10250000000000001,-0.08249999999999999,-0.07250000000000001,-0.0875,-0.0975,-0.11249999999999999,-0.10750000000000001,-0.0875,-0.0875,-0.10250000000000001,-0.1175,-0.1425,-0.16249999999999998,-0.1425,-0.1325,-0.1475,-0.1725,-0.2075,-0.2425,-0.28250000000000003,-0.3475,-0.4175,-0.5125000000000001,-0.5875,-0.6225,-0.6075,-0.5675000000000001,-0.5175000000000001,-0.4775,-0.4525,-0.4425,-0.4125,-0.3625,-0.32249999999999995,-0.3125,-0.28250000000000003,-0.2375,-0.1825,-0.1575,-0.1425,-0.1475,-0.1275,-0.10250000000000001,-0.07250000000000001,-0.0425,-0.0425,-0.0375,-0.032499999999999994,-0.012500000000000004,-0.0024999999999999953,0.0075,0.0024999999999999953,-0.0024999999999999953,-0.012500000000000004,-0.012500000000000004,-0.012500000000000004,0.0024999999999999953,0.0075,0.0075,-0.017499999999999995,0.0024999999999999953,-0.0024999999999999953,0.012500000000000004,0.01750000000000001,0.012500000000000004,0.0075,0.0075,0.0024999999999999953,0.022500000000000013,0.012500000000000004,-0.0024999999999999953,0.01750000000000001,0.022500000000000013,0.02749999999999999,0.0425
54,-0.0175,-0.0325,-0.0475,-0.0475,-0.057499999999999996,-0.0625,-0.0825,-0.0825,-0.0925,-0.0775,-0.0925,-0.0825,-0.0825,-0.09749999999999999,-0.1025,-0.1075,-0.1125,-0.09749999999999999,-0.1075,-0.1125,-0.1225,-0.1075,-0.1025,-0.1075,-0.1225,-0.1025,-0.1075,-0.0925,-0.0925,-0.0875,-0.0925,-0.1075,-0.1325,-0.1375,-0.1225,-0.1275,-0.1375,-0.16749999999999998,-0.1775,-0.1775,-0.1825,-0.2025,-0.2475,-0.3175,-0.3775,-0.4475,-0.5025,-0.5825,-0.6224999999999999,-0.6275,-0.6025,-0.5175,-0.4475,-0.41750000000000004,-0.41250000000000003,-0.41750000000000004,-0.3875,-0.3275,-0.30750000000000005,-0.2725,-0.22749999999999998,-0.21250000000000002,-0.1775,-0.15749999999999997,-0.1325,-0.1075,-0.09749999999999999,-0.0875,-0.0725,-0.03749999999999999,-0.007499999999999993,0.002500000000000016,0.022500000000000006,0.0175,-0.0024999999999999883,-0.007499999999999993,-0.0024999999999999883,-0.007499999999999993,-0.0024999999999999883,-0.007499999999999993,-0.0024999999999999883,-0.0024999999999999883,0.007499999999999993,0.007499999999999993,0.007499999999999993,-0.0024999999999999883,-0.007499999999999993,0.007499999999999993,0.0175,0.022500000000000006,0.002500000000000016,-0.012499999999999997,-0.007499999999999993,-0.0024999999999999883,0.02750000000000001,0.02750000000000001,0.022500000000000006,0.007499999999999993,0.002500000000000016,0.0175
55,-0.012499999999999983,0.00250000000000003,0.007500000000000034,0.022499999999999992,0.037500000000000006,0.012499999999999983,0.00250000000000003,0.007500000000000034,0.027499999999999997,0.037500000000000006,0.022499999999999992,0.027499999999999997,0.017499999999999988,0.017499999999999988,0.022499999999999992,0.037500000000000006,0.05750000000000002,0.04250000000000001,0.027499999999999997,0.037500000000000006,0.037500000000000006,0.06250000000000003,0.07749999999999999,0.07249999999999998,0.07249999999999998,0.0875,0.12250000000000003,0.17250000000000001,0.2225,0.2625,0.3175,0.39749999999999996,0.47750000000000004,0.5625,0.6175,0.6375000000000001,0.6175,0.5775,0.5125000000000001,0.4575,0.4125,0.4375,0.47750000000000004,0.5725,0.6925,0.8375,0.9325000000000001,1.0275,1.0825,1.0975,1.0725,0.9875,0.8925000000000001,0.7875000000000001,0.6825,0.5725,0.48750000000000004,0.38750000000000007,0.2825,0.1475,0.04250000000000001,-0.0325,-0.10249999999999995,-0.10749999999999996,-0.13249999999999998,-0.1425,-0.12249999999999997,-0.11249999999999996,-0.08749999999999994,-0.05250000000000002,-0.047500000000000014,-0.037500000000000006,-0.047500000000000014,-0.047500000000000014,-0.047500000000000014,-0.027499999999999997,-0.027499999999999997,-0.027499999999999997,-0.047500000000000014,-0.05250000000000002,-0.047500000000000014,-0.037500000000000006,-0.0325,-0.037500000000000006,-0.047500000000000014,-0.047500000000000014,-0.0325,-0.027499999999999997,-0.037500000000000006,-0.047500000000000014,-0.037500000000000006,-0.047500000000000014,-0.027499999999999997,-0.017499999999999988,-0.012499999999999983,-0.017499999999999988,-0.022499999999999992,-0.0325,-0.017499999999999988,0.012499999999999983
56,-0.06,-0.03999999999999998,-0.044999999999999984,-0.065,-0.09500000000000003,-0.07,-0.05499999999999999,-0.044999999999999984,-0.03999999999999998,-0.07,-0.08000000000000002,-0.08000000000000002,-0.06,-0.03999999999999998,-0.044999999999999984,-0.065,-0.07,-0.08000000000000002,-0.06,-0.04999999999999999,-0.034999999999999976,-0.05499999999999999,-0.04999999999999999,-0.044999999999999984,-0.014999999999999958,0.010000000000000064,0.024999999999999967,0.044999999999999984,0.08000000000000002,0.135,0.22500000000000003,0.31,0.385,0.43,0.44,0.44,0.405,0.325,0.20500000000000002,0.10000000000000003,0.02999999999999997,0.024999999999999967,0.09500000000000003,0.2,0.32,0.45,0.53,0.625,0.7,0.74,0.7050000000000001,0.6000000000000001,0.51,0.425,0.35500000000000004,0.29500000000000004,0.2,0.11000000000000004,0.019999999999999962,-0.065,-0.14499999999999996,-0.175,-0.195,-0.23499999999999993,-0.26999999999999996,-0.25999999999999995,-0.22000000000000003,-0.185,-0.15999999999999998,-0.13999999999999996,-0.13999999999999996,-0.12999999999999995,-0.10500000000000004,-0.065,-0.065,-0.08000000000000002,-0.08500000000000002,-0.09000000000000002,-0.06,-0.04999999999999999,-0.03999999999999998,-0.06,-0.065,-0.04999999999999999,-0.02999999999999997,-0.014999999999999958,-0.009999999999999953,-0.004999999999999949,-0.004999999999999949,-0.009999999999999953,0.00500000000000006,0.024999999999999967,0.03999999999999998,0.019999999999999962,0.015000000000000069,0.02999999999999997,0.06,0.07500000000000001,0.07500000000000001,0.06
57,-0.012499999999999997,-0.0325,-0.0575,-0.0575,-0.052500000000000005,-0.042499999999999996,-0.027499999999999997,-0.0475,-0.0625,-0.07250000000000001,-0.0675,-0.07250000000000001,-0.0775,-0.0975,-0.10250000000000001,-0.10250000000000001,-0.0975,-0.0925,-0.0975,-0.11750000000000001,-0.11750000000000001,-0.1125,-0.1125,-0.08750000000000001,-0.08750000000000001,-0.08750000000000001,-0.1075,-0.1075,-0.10250000000000001,-0.0825,-0.10250000000000001,-0.0975,-0.1075,-0.10250000000000001,-0.10250000000000001,-0.0975,-0.11750000000000001,-0.1375,-0.15250000000000002,-0.1325,-0.14250000000000002,-0.14250000000000002,-0.1775,-0.22250000000000003,-0.29750000000000004,-0.3675,-0.43250000000000005,-0.5075,-0.5625,-0.5824999999999999,-0.5475,-0.46749999999999997,-0.3975,-0.3875,-0.3825,-0.3425,-0.29250000000000004,-0.2625,-0.2475,-0.21250000000000002,-0.16749999999999998,-0.15250000000000002,-0.14250000000000002,-0.1125,-0.0825,-0.0625,-0.0625,-0.0475,-0.027499999999999997,-0.0175,0.0175,0.0175,0.02750000000000001,0.012499999999999997,-0.0175,0.007499999999999993,0.0025000000000000022,0.0025000000000000022,0.007499999999999993,0.0175,-0.0025000000000000022,0.0025000000000000022,0.007499999999999993,0.022500000000000006,0.02750000000000001,0.007499999999999993,0.0025000000000000022,0.012499999999999997,0.022500000000000006,0.03249999999999999,0.02750000000000001,0.007499999999999993,0.007499999999999993,0.012499999999999997,0.03249999999999999,0.03749999999999999,0.03749999999999999,0.012499999999999997,0.007499999999999993,0.012499999999999997
58,0.007500000000000007,0.03749999999999992,0.03250000000000003,0.03250000000000003,0.017500000000000016,-0.0025000000000000022,-0.012500000000000011,0.0025000000000000022,0.02250000000000002,0.02250000000000002,0.007500000000000007,-0.0025000000000000022,0.0025000000000000022,0.012500000000000011,0.03250000000000003,0.027500000000000024,0.007500000000000007,0.007500000000000007,0.007500000000000007,0.03250000000000003,0.062499999999999944,0.07249999999999995,0.062499999999999944,0.07249999999999995,0.09249999999999997,0.10749999999999998,0.14250000000000002,0.17249999999999993,0.18249999999999994,0.22749999999999998,0.2725,0.33749999999999997,0.3975,0.4174999999999999,0.43249999999999994,0.42749999999999994,0.4174999999999999,0.4025,0.3775,0.3675,0.3475,0.3675,0.4174999999999999,0.4925,0.5974999999999999,0.6924999999999999,0.7774999999999999,0.8174999999999999,0.8474999999999999,0.8674999999999999,0.8474999999999999,0.7825,0.6675,0.5774999999999999,0.4874999999999999,0.4025,0.33749999999999997,0.22749999999999998,0.1325,0.03250000000000003,-0.03250000000000003,-0.0675,-0.09250000000000003,-0.11750000000000005,-0.14750000000000002,-0.1375,-0.11750000000000005,-0.08250000000000002,-0.05750000000000005,-0.04250000000000004,-0.05750000000000005,-0.04750000000000004,-0.03750000000000003,-0.03250000000000003,-0.02250000000000002,-0.02250000000000002,-0.027500000000000024,-0.03750000000000003,-0.027500000000000024,-0.02250000000000002,-0.012500000000000011,-0.007500000000000007,-0.0025000000000000022,-0.017500000000000016,-0.0025000000000000022,0.012500000000000011,0.007500000000000007,0.007500000000000007,-0.017500000000000016,-0.04750000000000004,-0.04250000000000004,-0.03750000000000003,-0.027500000000000024,-0.017500000000000016,-0.027500000000000024,-0.04250000000000004,-0.04750000000000004,-0.02250000000000002,-0.017500000000000016,-0.007500000000000007
59,0.0225,-0.002500000000000009,-0.012500000000000004,-0.012500000000000004,-0.002500000000000009,0.017499999999999995,0.012499999999999997,0.0075,0.012499999999999997,0.012499999999999997,0.032499999999999994,0.047499999999999994,0.0375,0.032499999999999994,0.0075,0.032499999999999994,0.0425,0.0525,0.0425,0.0575,0.047499999999999994,0.047499999999999994,0.0425,0.032499999999999994,0.027499999999999997,0.0225,0.017499999999999995,0.0525,0.0675,0.1375,0.18250000000000002,0.20750000000000002,0.27249999999999996,0.3625,0.43749999999999994,0.4825,0.5175000000000001,0.4975,0.4825,0.44249999999999995,0.3975,0.3675,0.33749999999999997,0.3775,0.44749999999999995,0.5725,0.7125,0.8325,0.8975,0.9075,0.8625,0.7975,0.7275,0.6325,0.5275000000000001,0.42249999999999993,0.2975,0.1575,0.06249999999999999,-0.027500000000000004,-0.0875,-0.13749999999999998,-0.1625,-0.1625,-0.1275,-0.10250000000000001,-0.08249999999999999,-0.0675,-0.0575,-0.0425,-0.0225,-0.012500000000000004,-0.027500000000000004,-0.0375,-0.04750000000000001,-0.03250000000000001,-0.01750000000000001,-0.012500000000000004,-0.012500000000000004,-0.027500000000000004,-0.0425,-0.0375,-0.03250000000000001,-0.012500000000000004,-0.0225,-0.03250000000000001,-0.0425,-0.0375,-0.027500000000000004,-0.01750000000000001,-0.027500000000000004,-0.03250000000000001,-0.0425,-0.027500000000000004,-0.01750000000000001,-0.012500000000000004,-0.012500000000000004,-0.012500000000000004,-0.0225,-0.0225
60,-0.0325,-0.01249999999999999,-0.007499999999999993,-0.027499999999999997,-0.027499999999999997,-0.017499999999999995,-0.017499999999999995,-0.01249999999999999,-0.01249999999999999,-0.017499999999999995,-0.0325,-0.017499999999999995,-0.01249999999999999,-0.007499999999999993,-0.017499999999999995,-0.027499999999999997,-0.0325,-0.0325,-0.022499999999999992,-0.0024999999999999953,-0.01249999999999999,-0.022499999999999992,-0.022499999999999992,-0.022499999999999992,-0.022499999999999992,-0.0024999999999999953,0.01750000000000001,0.012500000000000004,0.022500000000000006,0.04250000000000001,0.07750000000000001,0.1225,0.1625,0.2275,0.2775,0.3425,0.38750000000000007,0.4225,0.39749999999999996,0.3175,0.20750000000000002,0.1325,0.0925,0.14750000000000002,0.2625,0.4275,0.5475,0.7075,0.8425,0.9375,0.9175,0.8624999999999999,0.7374999999999999,0.5925,0.49750000000000005,0.38750000000000007,0.2575,0.0975,-0.057499999999999996,-0.16749999999999998,-0.2325,-0.26249999999999996,-0.2825,-0.2875,-0.3025,-0.27749999999999997,-0.24249999999999997,-0.18749999999999997,-0.15749999999999997,-0.1175,-0.10749999999999998,-0.0875,-0.07249999999999998,-0.057499999999999996,-0.04749999999999999,-0.0675,-0.0625,-0.0625,-0.05249999999999999,-0.0325,-0.0325,-0.0325,-0.037500000000000006,-0.04249999999999998,-0.027499999999999997,-0.01249999999999999,-0.0024999999999999953,-0.01249999999999999,-0.027499999999999997,-0.027499999999999997,-0.017499999999999995,-0.0024999999999999953,-0.0024999999999999953,-0.0024999999999999953,-0.01249999999999999,-0.0024999999999999953,0.007500000000000007,0.027500000000000007,0.04250000000000001,0.03250000000000001
61,-0.012499999999999997,-0.0075000000000000205,-0.0175,-0.022500000000000006,-0.022500000000000006,-0.012499999999999997,-0.0175,-0.0175,-0.022500000000000006,-0.052500000000000005,-0.047500000000000014,-0.047500000000000014,-0.052500000000000005,-0.052500000000000005,-0.0825,-0.08750000000000001,-0.07250000000000001,-0.05750000000000001,-0.032500000000000015,-0.037500000000000006,-0.047500000000000014,-0.05750000000000001,-0.06250000000000001,-0.05750000000000001,-0.04250000000000001,-0.04250000000000001,-0.047500000000000014,-0.06250000000000001,-0.052500000000000005,-0.05750000000000001,-0.052500000000000005,-0.06250000000000001,-0.052500000000000005,-0.06250000000000001,-0.052500000000000005,-0.05750000000000001,-0.07750000000000001,-0.10250000000000001,-0.1125,-0.11750000000000001,-0.08750000000000001,-0.07250000000000001,-0.08750000000000001,-0.12250000000000001,-0.1725,-0.23750000000000004,-0.31750000000000006,-0.3825,-0.4575,-0.5025,-0.4925000000000001,-0.42750000000000005,-0.34750000000000003,-0.29250000000000004,-0.29750000000000004,-0.28750000000000003,-0.2775,-0.2575,-0.23750000000000004,-0.1925,-0.16750000000000004,-0.1325,-0.11750000000000001,-0.11750000000000001,-0.10750000000000001,-0.07750000000000001,-0.047500000000000014,-0.04250000000000001,-0.02750000000000001,-0.0175,0.0024999999999999883,0.0175,0.02249999999999998,0.0175,0.012499999999999997,0.0024999999999999883,0.0024999999999999883,0.0024999999999999883,0.02249999999999998,0.012499999999999997,0.012499999999999997,-0.002500000000000016,-0.002500000000000016,0.0175,0.02249999999999998,0.042499999999999996,0.03249999999999999,0.012499999999999997,0.007499999999999993,0.007499999999999993,0.0175,0.0024999999999999883,-0.002500000000000016,0.012499999999999997,0.007499999999999993,0.012499999999999997,0.0175,0.0175,0.007499999999999993,0.012499999999999997
62,0.09000000000000001,0.09000000000000001,0.06000000000000001,0.02499999999999998,0.029999999999999985,0.029999999999999985,0.010000000000000023,-0.0049999999999999906,-0.020000000000000004,-0.03500000000000002,-0.03500000000000002,-0.020000000000000004,-0.009999999999999995,-0.0049999999999999906,-0.009999999999999995,-0.02500000000000001,-0.02500000000000001,-0.020000000000000004,-0.020000000000000004,-0.030000000000000013,-0.039999999999999966,-0.04499999999999997,-0.04499999999999997,-0.04499999999999997,-0.039999999999999966,-0.04499999999999997,-0.059999999999999984,-0.05499999999999998,-0.04499999999999997,-0.049999999999999975,-0.039999999999999966,-0.039999999999999966,-0.04499999999999997,-0.059999999999999984,-0.075,-0.10000000000000002,-0.11999999999999998,-0.135,-0.16499999999999998,-0.21500000000000002,-0.23500000000000004,-0.185,-0.085,0.045,0.19,0.39,0.665,0.92,1.085,1.14,1.025,0.715,0.335,0.05,-0.10999999999999997,-0.16499999999999998,-0.16000000000000003,-0.13,-0.09000000000000001,-0.06999999999999999,-0.06499999999999999,-0.06999999999999999,-0.06999999999999999,-0.085,-0.09500000000000001,-0.075,-0.08,-0.08,-0.08,-0.08,-0.06499999999999999,-0.06499999999999999,-0.05499999999999998,-0.075,-0.075,-0.08,-0.06499999999999999,-0.06499999999999999,-0.059999999999999984,-0.06999999999999999,-0.08,-0.085,-0.085,-0.08,-0.08,-0.09000000000000001,-0.085,-0.09500000000000001,-0.10000000000000002,-0.085,-0.09000000000000001,-0.085,-0.10000000000000002,-0.10000000000000002,-0.09500000000000001,-0.06999999999999999,-0.075,-0.085,-0.09000000000000001,-0.09000000000000001
63,-0.025000000000000022,-0.025000000000000022,-0.015000000000000013,-0.0050000000000000044,-0.010000000000000009,-0.015000000000000013,-0.040000000000000036,-0.05999999999999994,-0.07499999999999996,-0.10999999999999999,-0.12,-0.12,-0.13,-0.13,-0.13,-0.11499999999999999,-0.11499999999999999,-0.10499999999999998,-0.11499999999999999,-0.10999999999999999,-0.12,-0.15500000000000003,-0.15500000000000003,-0.15500000000000003,-0.16999999999999993,-0.17499999999999993,-0.17499999999999993,-0.16500000000000004,-0.14500000000000002,-0.135,-0.12,-0.12,-0.125,-0.125,-0.13,-0.13,-0.14500000000000002,-0.135,-0.12,-0.10499999999999998,-0.09499999999999997,-0.06499999999999995,0.010000000000000009,0.08499999999999996,0.19500000000000006,0.315,0.45999999999999996,0.585,0.71,0.765,0.75,0.625,0.43500000000000005,0.19000000000000006,-0.07499999999999996,-0.345,-0.585,-0.78,-0.885,-0.8799999999999999,-0.8049999999999999,-0.675,-0.5549999999999999,-0.43999999999999995,-0.355,-0.2749999999999999,-0.19999999999999996,-0.15000000000000002,-0.09999999999999998,-0.07999999999999996,-0.07499999999999996,-0.07999999999999996,-0.09499999999999997,-0.10499999999999998,-0.09999999999999998,-0.08499999999999996,-0.08499999999999996,-0.07499999999999996,-0.07499999999999996,-0.05499999999999994,-0.04999999999999993,-0.05999999999999994,-0.06999999999999995,-0.05999999999999994,-0.040000000000000036,-0.030000000000000027,-0.020000000000000018,0.0,0.0,0.0050000000000000044,0.020000000000000018,0.020000000000000018,0.010000000000000009,0.010000000000000009,0.0,-0.0050000000000000044,-0.0050000000000000044,0.0,0.0050000000000000044,0.025000000000000022
64,-0.0325,-0.042499999999999996,-0.022499999999999992,-0.022499999999999992,-0.012499999999999997,-0.012499999999999997,-0.0325,-0.0475,-0.0475,-0.0475,-0.05249999999999999,-0.05249999999999999,-0.057499999999999996,-0.0725,-0.0775,-0.05249999999999999,-0.0625,-0.057499999999999996,-0.0725,-0.08249999999999999,-0.0725,-0.05249999999999999,-0.0625,-0.0625,-0.0725,-0.0775,-0.0675,-0.0625,-0.057499999999999996,-0.0725,-0.08249999999999999,-0.0875,-0.0725,-0.0625,-0.0625,-0.0975,-0.1025,-0.1175,-0.1175,-0.10749999999999998,-0.1175,-0.1475,-0.2025,-0.2625,-0.3075,-0.34249999999999997,-0.4125,-0.4875,-0.5474999999999999,-0.5774999999999999,-0.5625,-0.4875,-0.4175,-0.3925,-0.3775,-0.3525,-0.3075,-0.2625,-0.2425,-0.2125,-0.16749999999999998,-0.1375,-0.1275,-0.0975,-0.0725,-0.05249999999999999,-0.03749999999999999,-0.042499999999999996,-0.012499999999999997,-0.0025000000000000022,0.012500000000000011,0.012500000000000011,0.027499999999999997,0.022499999999999992,0.022499999999999992,0.037500000000000006,0.0325,0.012500000000000011,0.007500000000000007,-0.0025000000000000022,0.012500000000000011,0.017500000000000016,0.0325,0.012500000000000011,0.017500000000000016,0.007500000000000007,0.007500000000000007,0.017500000000000016,0.027499999999999997,0.022499999999999992,0.012500000000000011,0.0025000000000000022,0.027499999999999997,0.037500000000000006,0.04250000000000001,0.047500000000000014,0.0325,0.022499999999999992,0.037500000000000006,0.0325
65,0.04500000000000001,0.009999999999999981,0.014999999999999986,0.014999999999999986,-0.014999999999999986,-0.03,-0.024999999999999994,-0.035,-0.024999999999999994,-0.01999999999999999,-0.03,-0.03,-0.035,-0.04000000000000001,-0.024999999999999994,-0.014999999999999986,-0.01999999999999999,-0.03,-0.04000000000000001,-0.035,-0.024999999999999994,-0.014999999999999986,-0.01999999999999999,-0.035,-0.035,-0.035,-0.03,-0.03,-0.024999999999999994,-0.04500000000000001,-0.05000000000000002,-0.08499999999999999,-0.11500000000000002,-0.13499999999999998,-0.145,-0.18500000000000003,-0.21499999999999994,-0.23499999999999996,-0.17,-0.06999999999999998,0.03,0.135,0.24500000000000002,0.405,0.6,0.8150000000000001,0.975,1.09,1.185,1.2650000000000001,1.2550000000000001,1.175,0.9249999999999999,0.59,0.275,0.04000000000000001,-0.09,-0.13499999999999998,-0.145,-0.12999999999999998,-0.095,-0.07999999999999999,-0.06999999999999998,-0.05500000000000002,-0.05000000000000002,-0.04500000000000001,-0.05500000000000002,-0.06499999999999997,-0.05500000000000002,-0.04000000000000001,-0.05000000000000002,-0.05000000000000002,-0.05999999999999997,-0.05500000000000002,-0.05000000000000002,-0.035,-0.04500000000000001,-0.05000000000000002,-0.06499999999999997,-0.05999999999999997,-0.05500000000000002,-0.04500000000000001,-0.04500000000000001,-0.04500000000000001,-0.05999999999999997,-0.07499999999999998,-0.05500000000000002,-0.04500000000000001,-0.04500000000000001,-0.05000000000000002,-0.05000000000000002,-0.05999999999999997,-0.05000000000000002,-0.035,-0.035,-0.05000000000000002,-0.05500000000000002,-0.05999999999999997,-0.04000000000000001,-0.04500000000000001
66,-0.0675,-0.0475,-0.057499999999999996,-0.0725,-0.0975,-0.1175,-0.1675,-0.2075,-0.2175,-0.1925,-0.1375,-0.1175,-0.1225,-0.10250000000000001,-0.1075,-0.1875,-0.27249999999999996,-0.27749999999999997,-0.24750000000000003,-0.20249999999999999,-0.1675,-0.1325,-0.1325,-0.1275,-0.1375,-0.1225,-0.1325,-0.1275,-0.17250000000000001,-0.1675,-0.1325,-0.1075,-0.1075,-0.1425,-0.1475,-0.1625,-0.1525,-0.1575,-0.1775,-0.1775,-0.1925,-0.2075,-0.2175,-0.2175,-0.25250000000000006,-0.3075,-0.4225,-0.5325000000000001,-0.6125,-0.6375000000000001,-0.6175,-0.5525000000000001,-0.5025000000000001,-0.4175,-0.38250000000000006,-0.37250000000000005,-0.3275,-0.3075,-0.2925,-0.24250000000000002,-0.2075,-0.1325,-0.0675,-0.0025000000000000022,-0.022499999999999992,-0.0775,-0.10250000000000001,-0.0875,-0.052500000000000005,-0.012500000000000011,0.012500000000000011,0.022499999999999992,0.027499999999999997,0.0325,0.04749999999999999,0.037500000000000006,0.017499999999999988,0.022499999999999992,0.057499999999999996,0.07250000000000001,0.0675,0.027499999999999997,0.012500000000000011,0.007500000000000007,0.017499999999999988,0.04250000000000001,0.07749999999999999,0.07749999999999999,0.0625,0.05249999999999999,0.05249999999999999,0.07250000000000001,0.0675,0.04250000000000001,0.017499999999999988,0.012500000000000011,0.0325,0.05249999999999999,0.08249999999999999,0.0675
67,-0.017500000000000016,-0.03750000000000003,-0.03750000000000003,-0.04250000000000004,-0.04250000000000004,-0.06750000000000006,-0.07250000000000006,-0.07250000000000006,-0.08750000000000008,-0.09749999999999998,-0.1175,-0.1325,-0.1375,-0.17750000000000005,-0.16250000000000003,-0.14750000000000002,-0.14750000000000002,-0.1325,-0.14250000000000002,-0.1375,-0.16750000000000004,-0.15750000000000003,-0.16750000000000004,-0.16750000000000004,-0.17250000000000004,-0.19250000000000006,-0.18250000000000005,-0.17750000000000005,-0.16750000000000004,-0.15750000000000003,-0.15250000000000002,-0.14750000000000002,-0.15250000000000002,-0.15750000000000003,-0.15250000000000002,-0.14750000000000002,-0.15250000000000002,-0.14750000000000002,-0.14250000000000002,-0.1225,-0.09749999999999998,-0.06250000000000006,0.0025000000000000022,0.08749999999999997,0.19249999999999995,0.3125,0.45249999999999996,0.5725,0.6724999999999999,0.7075,0.6525000000000001,0.5075000000000001,0.2825,0.017500000000000016,-0.2425,-0.4875,-0.7075,-0.8325,-0.9025000000000001,-0.8525,-0.7525000000000002,-0.6175000000000002,-0.5125000000000002,-0.42250000000000004,-0.34249999999999997,-0.2824999999999999,-0.22249999999999998,-0.14250000000000002,-0.10249999999999998,-0.07250000000000006,-0.07750000000000007,-0.09249999999999997,-0.08250000000000007,-0.11249999999999999,-0.10749999999999998,-0.09749999999999998,-0.09249999999999997,-0.04750000000000004,-0.03750000000000003,-0.027500000000000024,-0.03250000000000003,-0.03750000000000003,-0.027500000000000024,-0.03250000000000003,-0.04250000000000004,-0.05250000000000005,-0.04250000000000004,-0.03250000000000003,-0.017500000000000016,-0.012500000000000011,0.0025000000000000022,0.017500000000000016,0.017500000000000016,0.017500000000000016,0.007500000000000007,0.007500000000000007,0.007500000000000007,-0.0025000000000000022,0.007500000000000007,0.017500000000000016
68,0.0975,0.07249999999999998,0.05250000000000002,0.0325,0.027499999999999997,0.017499999999999988,-0.007499999999999979,-0.022499999999999992,-0.0325,-0.027499999999999997,-0.0325,-0.037500000000000006,-0.022499999999999992,-0.027499999999999997,-0.027499999999999997,-0.0325,-0.017499999999999988,-0.022499999999999992,-0.027499999999999997,-0.027499999999999997,-0.0325,-0.022499999999999992,-0.022499999999999992,-0.017499999999999988,-0.027499999999999997,-0.04250000000000001,-0.04250000000000001,-0.05250000000000002,-0.05250000000000002,-0.047500000000000014,-0.05750000000000002,-0.06749999999999998,-0.07249999999999998,-0.047500000000000014,-0.047500000000000014,-0.05250000000000002,-0.11250000000000002,-0.13750000000000004,-0.16749999999999995,-0.20249999999999999,-0.23750000000000002,-0.25250000000000006,-0.18249999999999997,-0.06250000000000003,0.0875,0.2825,0.5375,0.8274999999999999,1.0475,1.1624999999999999,1.1375,0.9175,0.5525,0.1725,-0.06749999999999998,-0.17249999999999996,-0.19249999999999998,-0.14750000000000005,-0.11750000000000002,-0.0875,-0.0875,-0.0925,-0.0925,-0.0875,-0.0925,-0.07749999999999999,-0.08249999999999999,-0.08249999999999999,-0.0925,-0.0875,-0.07249999999999998,-0.06749999999999998,-0.07749999999999999,-0.07749999999999999,-0.0975,-0.0875,-0.0975,-0.0875,-0.08249999999999999,-0.0925,-0.0975,-0.0925,-0.08249999999999999,-0.07749999999999999,-0.0975,-0.0975,-0.10250000000000001,-0.0925,-0.0975,-0.07749999999999999,-0.08249999999999999,-0.0875,-0.11250000000000002,-0.0925,-0.07249999999999998,-0.08249999999999999,-0.08249999999999999,-0.0925,-0.0925,-0.0975
69,-0.06,-0.04999999999999999,-0.04999999999999999,-0.04999999999999999,-0.04999999999999999,-0.03999999999999998,-0.02999999999999997,-0.020000000000000018,-0.034999999999999976,-0.03999999999999998,-0.05499999999999999,-0.03999999999999998,-0.04999999999999999,-0.044999999999999984,-0.03999999999999998,-0.044999999999999984,-0.03999999999999998,-0.044999999999999984,0.0,0.010000000000000009,0.0050000000000000044,-0.0050000000000000044,-0.015000000000000013,0.015000000000000013,0.035,0.07,0.095,0.11000000000000001,0.125,0.185,0.23500000000000001,0.29500000000000004,0.33,0.34,0.34,0.36,0.36,0.325,0.255,0.175,0.11000000000000001,0.08500000000000002,0.12,0.19,0.275,0.36,0.445,0.535,0.615,0.655,0.635,0.575,0.51,0.45,0.39,0.335,0.245,0.165,0.07,0.0,-0.04999999999999999,-0.08499999999999996,-0.14,-0.15499999999999997,-0.16999999999999998,-0.15999999999999998,-0.14500000000000002,-0.125,-0.12,-0.11499999999999999,-0.08499999999999996,-0.044999999999999984,-0.034999999999999976,-0.015000000000000013,-0.024999999999999967,-0.034999999999999976,-0.044999999999999984,-0.03999999999999998,0.0050000000000000044,0.015000000000000013,0.015000000000000013,-0.015000000000000013,-0.020000000000000018,-0.015000000000000013,0.0,0.035,0.020000000000000018,0.010000000000000009,0.015000000000000013,0.0050000000000000044,0.020000000000000018,0.015000000000000013,0.015000000000000013,0.0050000000000000044,0.015000000000000013,0.04000000000000001,0.04000000000000001,0.05500000000000002,0.05000000000000002,0.06
70,-0.03,-0.05,-0.034999999999999996,-0.024999999999999994,-0.019999999999999997,-0.024999999999999994,-0.045,-0.034999999999999996,-0.05499999999999999,-0.05,-0.065,-0.075,-0.05499999999999999,-0.045,-0.03,-0.05499999999999999,-0.06999999999999999,-0.08499999999999999,-0.08,-0.065,-0.05499999999999999,-0.05,-0.05499999999999999,-0.06999999999999999,-0.06999999999999999,-0.065,-0.05499999999999999,-0.039999999999999994,-0.06,-0.08499999999999999,-0.06999999999999999,-0.06,-0.05,-0.06,-0.075,-0.105,-0.115,-0.11,-0.09999999999999999,-0.09999999999999999,-0.115,-0.125,-0.135,-0.15999999999999998,-0.18,-0.245,-0.34500000000000003,-0.43,-0.515,-0.55,-0.545,-0.48999999999999994,-0.435,-0.38499999999999995,-0.37499999999999994,-0.36499999999999994,-0.335,-0.305,-0.27999999999999997,-0.285,-0.25999999999999995,-0.19,-0.15499999999999997,-0.13,-0.125,-0.12000000000000001,-0.09999999999999999,-0.06999999999999999,-0.06,-0.05,-0.039999999999999994,-0.034999999999999996,-0.009999999999999995,-0.0049999999999999906,0.0050000000000000044,0.0,-0.015,-0.03,-0.03,-0.009999999999999995,0.0050000000000000044,0.0050000000000000044,0.0050000000000000044,0.0,-0.0049999999999999906,0.0050000000000000044,0.010000000000000009,0.015,0.010000000000000009,0.0050000000000000044,0.0050000000000000044,0.0,0.015,0.010000000000000009,0.0,-0.019999999999999997,-0.0049999999999999906,0.0,0.020000000000000004,0.03
71,-0.015,-0.009999999999999995,-0.005000000000000018,0.009999999999999995,-0.009999999999999995,-0.015,-1.3877787807814457e-17,0.0049999999999999906,0.020000000000000004,0.015,-1.3877787807814457e-17,-0.009999999999999995,-0.020000000000000004,-0.015,-1.3877787807814457e-17,0.015,-1.3877787807814457e-17,-0.015,-1.3877787807814457e-17,0.0049999999999999906,0.009999999999999995,0.015,0.039999999999999994,0.020000000000000004,0.029999999999999985,0.05,0.07999999999999999,0.10999999999999999,0.13,0.15499999999999997,0.21499999999999997,0.29,0.38999999999999996,0.47500000000000003,0.52,0.545,0.535,0.53,0.48499999999999993,0.435,0.39499999999999996,0.37999999999999995,0.435,0.56,0.7100000000000001,0.8550000000000001,0.9700000000000001,1.035,1.09,1.11,1.055,0.9650000000000001,0.8500000000000001,0.7500000000000001,0.65,0.55,0.435,0.315,0.175,0.039999999999999994,-0.06500000000000002,-0.115,-0.14500000000000002,-0.18,-0.19,-0.2,-0.2,-0.16499999999999998,-0.13,-0.11,-0.09499999999999999,-0.09999999999999999,-0.09499999999999999,-0.06500000000000002,-0.05,-0.05,-0.06000000000000001,-0.07000000000000002,-0.08999999999999998,-0.06500000000000002,-0.045,-0.030000000000000013,-0.03500000000000002,-0.05,-0.045,-0.039999999999999994,-0.03500000000000002,-0.020000000000000004,-0.030000000000000013,-0.05500000000000001,-0.06000000000000001,-0.039999999999999994,-0.02500000000000001,-0.005000000000000018,-0.009999999999999995,-0.02500000000000001,-0.03500000000000002,-0.015,-0.005000000000000018,0.015
72,-0.05,-0.04000000000000001,-0.04500000000000001,-0.04000000000000001,-0.030000000000000002,-0.04500000000000001,-0.07,-0.07,-0.07500000000000001,-0.07500000000000001,-0.085,-0.08000000000000002,-0.095,-0.085,-0.08000000000000002,-0.065,-0.07,-0.085,-0.085,-0.095,-0.085,-0.07,-0.07,-0.08000000000000002,-0.095,-0.095,-0.085,-0.08000000000000002,-0.07500000000000001,-0.07500000000000001,-0.08000000000000002,-0.08000000000000002,-0.08000000000000002,-0.09,-0.09,-0.095,-0.12,-0.125,-0.12,-0.12,-0.11500000000000002,-0.13,-0.16,-0.18,-0.23,-0.26999999999999996,-0.355,-0.415,-0.485,-0.49,-0.44499999999999995,-0.38499999999999995,-0.33999999999999997,-0.345,-0.365,-0.32499999999999996,-0.27499999999999997,-0.24000000000000002,-0.225,-0.215,-0.21,-0.16,-0.11000000000000001,-0.095,-0.085,-0.08000000000000002,-0.09,-0.04500000000000001,-0.015000000000000003,-3.469446951953614e-18,0.02,0.024999999999999998,0.02,0.035,0.045,0.05,0.029999999999999995,0.014999999999999996,-0.005000000000000001,0.009999999999999998,0.009999999999999998,0.029999999999999995,0.029999999999999995,0.02,0.014999999999999996,0.02,0.035,0.05500000000000001,0.05,0.024999999999999998,0.009999999999999998,0.029999999999999995,0.029999999999999995,0.04000000000000001,0.035,0.035,0.024999999999999998,0.035,0.045,0.05
